# radius [kpc]; vcirc [km/s] ; f_x [km/s/s] ; f_y [km/s/s] ; f_z [km/s/s];
           0.1           nan       117.539             0    7.1972e-15
        0.2199       1.18283      -6.36233            -0   -3.8958e-16
        0.3398       7.34975      -158.972            -0  -9.73426e-15
        0.4597       11.7496      -300.314            -0  -1.83889e-14
        0.5796       15.6056       -420.18            -0  -2.57286e-14
        0.6995       19.0589       -519.29            -0  -3.17973e-14
        0.8194       22.1698      -599.827            -0  -3.67288e-14
        0.9393       24.9327      -661.811            -0  -4.05243e-14
        1.0592         27.41      -709.315            -0   -4.3433e-14
        1.1791       29.6416      -745.164            -0  -4.56281e-14
         1.299       31.6291       -770.13            -0  -4.71569e-14
        1.4189       33.4226      -787.281            -0  -4.82071e-14
        1.5388       35.0532      -798.496            -0  -4.88938e-14
        1.6587       36.5288      -804.456            -0  -4.92588e-14
        1.7786       37.8834      -806.899            -0  -4.94083e-14
        1.8985       39.1374      -806.816            -0  -4.94032e-14
        2.0184       40.3003      -804.653            -0  -4.92708e-14
        2.1383       41.3913      -801.215            -0  -4.90603e-14
        2.2582       42.4223       -796.94            -0  -4.87985e-14
        2.3781       43.4006      -792.065            -0     -4.85e-14
         2.498       44.3357      -786.891            -0  -4.81832e-14
        2.6179       45.2336      -781.571            -0  -4.78574e-14
        2.7378       46.0987      -776.204            -0  -4.75288e-14
        2.8577       46.9351      -770.865            -0  -4.72019e-14
        2.9776       47.7456      -765.596            -0  -4.68792e-14
        3.0975       48.5322      -760.411            -0  -4.65618e-14
        3.2174       49.2965      -755.312            -0  -4.62495e-14
        3.3373       50.0398      -750.303            -0  -4.59428e-14
        3.4572        50.763      -745.367            -0  -4.56406e-14
        3.5771       51.4667      -740.494            -0  -4.53422e-14
         3.697       52.1516      -735.674            -0   -4.5047e-14
        3.8169        52.818      -730.892            -0  -4.47543e-14
        3.9368       53.4666      -726.143            -0  -4.44635e-14
        4.0567       54.0978      -721.417            -0   -4.4174e-14
        4.1766        54.712      -716.707            -0  -4.38857e-14
        4.2965       55.3096      -712.011            -0  -4.35981e-14
        4.4164       55.8913      -707.326            -0  -4.33112e-14
        4.5363       56.4574      -702.651            -0  -4.30249e-14
        4.6562       57.0085      -697.986            -0  -4.27393e-14
        4.7761        57.545      -693.334            -0  -4.24545e-14
         4.896       58.0677      -688.695            -0  -4.21704e-14
        5.0159       58.5768      -684.073            -0  -4.18874e-14
        5.1358        59.073      -679.469            -0  -4.16055e-14
        5.2557       59.5567      -674.886            -0  -4.13249e-14
        5.3756       60.0284      -670.327            -0  -4.10457e-14
        5.4955       60.4885      -665.793            -0   -4.0768e-14
        5.6154       60.9376      -661.287            -0  -4.04922e-14
        5.7353       61.3759       -656.81            -0   -4.0218e-14
        5.8552       61.8038      -652.363            -0  -3.99457e-14
        5.9751       62.2218      -647.948            -0  -3.96754e-14
         6.095         62.63      -643.563            -0  -3.94069e-14
        6.2149       63.0289      -639.213            -0  -3.91405e-14
        6.3348       63.4186      -634.893            -0   -3.8876e-14
        6.4547       63.7995      -630.607            -0  -3.86135e-14
        6.5746       64.1717      -626.351            -0  -3.83529e-14
        6.6945       64.5356      -622.129            -0  -3.80944e-14
        6.8144       64.8912      -617.936            -0  -3.78377e-14
        6.9343       65.2388      -613.775            -0  -3.75829e-14
        7.0542       65.5785      -609.643            -0  -3.73299e-14
        7.1741       65.9107      -605.542            -0  -3.70788e-14
         7.294       66.2353      -601.469            -0  -3.68293e-14
        7.4139       66.5527      -597.426            -0  -3.65818e-14
        7.5338       66.8628      -593.411            -0  -3.63359e-14
        7.6537        67.166      -589.423            -0  -3.60917e-14
        7.7736       67.4623      -585.464            -0  -3.58493e-14
        7.8935       67.7519      -581.532            -0  -3.56086e-14
        8.0134        68.035      -577.627            -0  -3.53695e-14
        8.1333       68.3118      -573.752            -0  -3.51322e-14
        8.2532       68.5823      -569.904            -0  -3.48966e-14
        8.3731       68.8469      -566.086            -0  -3.46628e-14
         8.493       69.1055      -562.296            -0  -3.44307e-14
        8.6129       69.3586      -558.536            -0  -3.42005e-14
        8.7328        69.606      -554.805            -0   -3.3972e-14
        8.8527       69.8482      -551.106            -0  -3.37455e-14
        8.9726       70.0852      -547.437            -0  -3.35208e-14
        9.0925       70.3172      -543.801            -0  -3.32982e-14
        9.2124       70.5443      -540.195            -0  -3.30774e-14
        9.3323       70.7668      -536.625            -0  -3.28588e-14
        9.4522       70.9848      -533.086            -0  -3.26421e-14
        9.5721       71.1985      -529.583            -0  -3.24276e-14
         9.692        71.408      -526.114            -0  -3.22152e-14
        9.8119       71.6135      -522.681            -0   -3.2005e-14
        9.9318       71.8152      -519.283            -0  -3.17969e-14
       10.0517        72.013       -515.92            -0   -3.1591e-14
       10.1716       72.2076      -512.597            -0  -3.13875e-14
       10.2915       72.3985      -509.309            -0  -3.11862e-14
       10.4114       72.5864      -506.059            -0  -3.09872e-14
       10.5313        72.771      -502.845            -0  -3.07904e-14
       10.6512       72.9527      -499.671            -0   -3.0596e-14
       10.7711       73.1314      -496.533            -0  -3.04039e-14
        10.891       73.3073      -493.431            -0  -3.02139e-14
       11.0109       73.4807       -490.37            -0  -3.00265e-14
       11.1308       73.6514      -487.344            -0  -2.98412e-14
       11.2507       73.8197      -484.357            -0  -2.96583e-14
       11.3706       73.9855      -481.405            -0  -2.94775e-14
       11.4905       74.1492      -478.491            -0  -2.92991e-14
       11.6104       74.3105      -475.612            -0  -2.91228e-14
       11.7303       74.4696      -472.768            -0  -2.89487e-14
       11.8502       74.6267      -469.962            -0  -2.87769e-14
       11.9701       74.7817      -467.189            -0  -2.86071e-14
         12.09       74.9347      -464.451            -0  -2.84394e-14
       12.2099       75.0858      -461.746            -0  -2.82738e-14
       12.3298       75.2348      -459.073            -0  -2.81101e-14
       12.4497       75.3822      -456.435            -0  -2.79486e-14
       12.5696       75.5275      -453.826            -0  -2.77888e-14
       12.6895        75.671      -451.248            -0  -2.76309e-14
       12.8094        75.813      -448.702            -0  -2.74751e-14
       12.9293       75.9529      -446.184            -0  -2.73209e-14
       13.0492       76.0912      -443.696            -0  -2.71685e-14
       13.1691       76.2277      -441.234            -0  -2.70178e-14
        13.289       76.3623      -438.799            -0  -2.68687e-14
       13.4089       76.4954      -436.393            -0  -2.67214e-14
       13.5288       76.6267      -434.011            -0  -2.65755e-14
       13.6487       76.7561      -431.653            -0  -2.64311e-14
       13.7686       76.8841      -429.322            -0  -2.62884e-14
       13.8885       77.0101      -427.012            -0   -2.6147e-14
       14.0084       77.1344      -424.725            -0  -2.60069e-14
       14.1283       77.2572      -422.462            -0  -2.58684e-14
       14.2482       77.3781      -420.219            -0   -2.5731e-14
       14.3681       77.4972      -417.997            -0  -2.55949e-14
        14.488       77.6148      -415.797            -0  -2.54602e-14
       14.6079       77.7305      -413.614            -0  -2.53266e-14
       14.7278       77.8445      -411.451            -0  -2.51941e-14
       14.8477       77.9569      -409.307            -0  -2.50629e-14
       14.9676       78.0674      -407.181            -0  -2.49326e-14
       15.0875       78.1762      -405.071            -0  -2.48035e-14
       15.2074       78.2833       -402.98            -0  -2.46754e-14
       15.3273       78.3887      -400.905            -0  -2.45483e-14
       15.4472       78.4923      -398.845            -0  -2.44222e-14
       15.5671       78.5943      -396.802            -0  -2.42971e-14
        15.687       78.6944      -394.774            -0  -2.41729e-14
       15.8069       78.7929       -392.76            -0  -2.40496e-14
       15.9268       78.8897      -390.762            -0  -2.39273e-14
       16.0467       78.9848      -388.777            -0  -2.38057e-14
       16.1666       79.0781      -386.807            -0  -2.36851e-14
       16.2865       79.1699      -384.851            -0  -2.35653e-14
       16.4064       79.2599      -382.908            -0  -2.34463e-14
       16.5263       79.3483      -380.978            -0  -2.33282e-14
       16.6462        79.435      -379.061            -0  -2.32108e-14
       16.7661       79.5202      -377.157            -0  -2.30942e-14
        16.886       79.6037      -375.266            -0  -2.29784e-14
       17.0059       79.6856      -373.388            -0  -2.28634e-14
       17.1258        79.766      -371.522            -0  -2.27492e-14
       17.2457       79.8448      -369.668            -0  -2.26356e-14
       17.3656        79.922      -367.826            -0  -2.25229e-14
       17.4855       79.9977      -365.997            -0  -2.24108e-14
       17.6054        80.072       -364.18            -0  -2.22996e-14
       17.7253       80.1448      -362.374            -0   -2.2189e-14
       17.8452       80.2161       -360.58            -0  -2.20792e-14
       17.9651        80.286      -358.798            -0    -2.197e-14
        18.085       80.3545      -357.028            -0  -2.18617e-14
       18.2049       80.4217       -355.27            -0   -2.1754e-14
       18.3248       80.4875      -353.523            -0   -2.1647e-14
       18.4447       80.5519      -351.787            -0  -2.15407e-14
       18.5646       80.6151      -350.064            -0  -2.14352e-14
       18.6845        80.677      -348.352            -0  -2.13304e-14
       18.8044       80.7377      -346.651            -0  -2.12263e-14
       18.9243       80.7971      -344.962            -0  -2.11228e-14
       19.0442       80.8554      -343.286            -0  -2.10202e-14
       19.1641       80.9125       -341.62            -0  -2.09182e-14
        19.284       80.9685      -339.965            -0  -2.08169e-14
       19.4039       81.0233      -338.322            -0  -2.07163e-14
       19.5238       81.0771      -336.692            -0  -2.06164e-14
       19.6437       81.1299      -335.072            -0  -2.05172e-14
       19.7636       81.1815      -333.464            -0  -2.04188e-14
       19.8835       81.2322      -331.867            -0   -2.0321e-14
       20.0034       81.2819      -330.281            -0  -2.02239e-14
       20.1233       81.3308      -328.708            -0  -2.01276e-14
       20.2432       81.3786      -327.146            -0  -2.00319e-14
       20.3631       81.4256      -325.595            -0   -1.9937e-14
        20.483       81.4717      -324.056            -0  -1.98427e-14
       20.6029       81.5169      -322.527            -0  -1.97491e-14
       20.7228       81.5614      -321.012            -0  -1.96563e-14
       20.8427        81.605      -319.506            -0  -1.95641e-14
       20.9626       81.6478      -318.012            -0  -1.94726e-14
       21.0825       81.6899       -316.53            -0  -1.93819e-14
       21.2024       81.7312      -315.058            -0  -1.92918e-14
       21.3223        81.772      -313.599            -0  -1.92024e-14
       21.4422       81.8119       -312.15            -0  -1.91137e-14
       21.5621       81.8512      -310.713            -0  -1.90257e-14
        21.682       81.8898      -309.286            -0  -1.89383e-14
       21.8019       81.9278       -307.87            -0  -1.88516e-14
       21.9218       81.9652      -306.466            -0  -1.87657e-14
       22.0417        82.002      -305.073            -0  -1.86803e-14
       22.1616       82.0382       -303.69            -0  -1.85957e-14
       22.2815       82.0738      -302.319            -0  -1.85117e-14
       22.4014       82.1089      -300.958            -0  -1.84283e-14
       22.5213       82.1434      -299.607            -0  -1.83457e-14
       22.6412       82.1776      -298.268            -0  -1.82637e-14
       22.7611       82.2111      -296.939            -0  -1.81823e-14
        22.881       82.2441      -295.621            -0  -1.81016e-14
       23.0009       82.2767      -294.313            -0  -1.80215e-14
       23.1208       82.3088      -293.015            -0   -1.7942e-14
       23.2407       82.3404      -291.727            -0  -1.78631e-14
       23.3606       82.3716       -290.45            -0  -1.77849e-14
       23.4805       82.4025      -289.183            -0  -1.77074e-14
       23.6004       82.4328      -287.926            -0  -1.76304e-14
       23.7203       82.4627      -286.679            -0   -1.7554e-14
       23.8402       82.4922      -285.441            -0  -1.74782e-14
       23.9601       82.5213      -284.213            -0   -1.7403e-14
         24.08       82.5501      -282.995            -0  -1.73284e-14
       24.1999       82.5784      -281.786            -0  -1.72544e-14
       24.3198       82.6065      -280.587            -0   -1.7181e-14
       24.4397       82.6341      -279.397            -0  -1.71082e-14
       24.5596       82.6613      -278.217            -0  -1.70359e-14
       24.6795       82.6882      -277.045            -0  -1.69641e-14
       24.7994       82.7147      -275.883            -0  -1.68929e-14
       24.9193       82.7409      -274.729            -0  -1.68223e-14
       25.0392       82.7667      -273.584            -0  -1.67522e-14
       25.1591       82.7922      -272.448            -0  -1.66826e-14
        25.279       82.8173       -271.32            -0  -1.66136e-14
       25.3989       82.8422      -270.202            -0  -1.65451e-14
       25.5188       82.8667      -269.091            -0  -1.64771e-14
       25.6387       82.8909      -267.989            -0  -1.64096e-14
       25.7586       82.9147      -266.895            -0  -1.63426e-14
       25.8785       82.9382      -265.809            -0  -1.62761e-14
       25.9984       82.9614      -264.732            -0  -1.62101e-14
       26.1183       82.9843      -263.662            -0  -1.61446e-14
       26.2382       83.0068      -262.599            -0  -1.60796e-14
       26.3581       83.0291      -261.545            -0   -1.6015e-14
        26.478        83.051      -260.498            -0  -1.59509e-14
       26.5979       83.0726      -259.459            -0  -1.58873e-14
       26.7178        83.094      -258.427            -0  -1.58241e-14
       26.8377        83.115      -257.403            -0  -1.57614e-14
       26.9576       83.1356      -256.385            -0  -1.56991e-14
       27.0775        83.156      -255.375            -0  -1.56372e-14
       27.1974        83.176      -254.372            -0  -1.55758e-14
       27.3173       83.1958      -253.376            -0  -1.55148e-14
       27.4372       83.2152      -252.386            -0  -1.54542e-14
       27.5571       83.2343      -251.403            -0   -1.5394e-14
        27.677       83.2531      -250.427            -0  -1.53343e-14
       27.7969       83.2716      -249.458            -0  -1.52749e-14
       27.9168       83.2898      -248.495            -0  -1.52159e-14
       28.0367       83.3077      -247.539            -0  -1.51574e-14
       28.1566       83.3252      -246.588            -0  -1.50992e-14
       28.2765       83.3425      -245.644            -0  -1.50414e-14
       28.3964       83.3594      -244.707            -0   -1.4984e-14
       28.5163        83.376      -243.775            -0  -1.49269e-14
       28.6362       83.3924       -242.85            -0  -1.48703e-14
       28.7561       83.4084       -241.93            -0  -1.48139e-14
        28.876       83.4241      -241.016            -0   -1.4758e-14
       28.9959       83.4395      -240.108            -0  -1.47024e-14
       29.1158       83.4546      -239.206            -0  -1.46471e-14
       29.2357       83.4693      -238.309            -0  -1.45922e-14
       29.3556       83.4838      -237.418            -0  -1.45376e-14
       29.4755       83.4979      -236.532            -0  -1.44834e-14
       29.5954       83.5118      -235.652            -0  -1.44295e-14
       29.7153       83.5253      -234.777            -0  -1.43759e-14
       29.8352       83.5385      -233.908            -0  -1.43227e-14
       29.9551       83.5514      -233.043            -0  -1.42698e-14
        30.075        83.564      -232.184            -0  -1.42172e-14
       30.1949       83.5762       -231.33            -0  -1.41649e-14
       30.3148       83.5882      -230.481            -0  -1.41129e-14
       30.4347       83.5999      -229.637            -0  -1.40612e-14
       30.5546       83.6112      -228.798            -0  -1.40099e-14
       30.6745       83.6223      -227.964            -0  -1.39588e-14
       30.7944        83.633      -227.135            -0   -1.3908e-14
       30.9143       83.6435       -226.31            -0  -1.38575e-14
       31.0342       83.6536      -225.491            -0  -1.38073e-14
       31.1541       83.6634      -224.676            -0  -1.37574e-14
        31.274        83.673      -223.865            -0  -1.37078e-14
       31.3939       83.6822       -223.06            -0  -1.36585e-14
       31.5138       83.6911      -222.258            -0  -1.36094e-14
       31.6337       83.6998      -221.462            -0  -1.35606e-14
       31.7536       83.7081      -220.669            -0  -1.35121e-14
       31.8735       83.7162      -219.882            -0  -1.34639e-14
       31.9934       83.7239      -219.098            -0  -1.34159e-14
       32.1133       83.7314      -218.319            -0  -1.33682e-14
       32.2332       83.7386      -217.544            -0  -1.33207e-14
       32.3531       83.7455      -216.774            -0  -1.32736e-14
        32.473       83.7521      -216.007            -0  -1.32266e-14
       32.5929       83.7584      -215.245            -0    -1.318e-14
       32.7128       83.7644      -214.487            -0  -1.31336e-14
       32.8327       83.7702      -213.733            -0  -1.30874e-14
       32.9526       83.7757      -212.984            -0  -1.30415e-14
       33.0725       83.7809      -212.238            -0  -1.29958e-14
       33.1924       83.7858      -211.496            -0  -1.29504e-14
       33.3123       83.7905      -210.758            -0  -1.29052e-14
       33.4322       83.7948      -210.024            -0  -1.28603e-14
       33.5521       83.7989      -209.294            -0  -1.28156e-14
