# radius [kpc]; vcirc [km/s] ; f_x [km/s/s] ; f_y [km/s/s] ; f_z [km/s/s];
           0.1           nan       312.312      -408.298      -29.8369
        0.2199       5.59681      -142.448      -201.996      -204.915
        0.3398        13.934      -571.388      -74.8775      -260.409
        0.4597       19.7428      -847.895      -18.6121      -255.593
        0.5796       24.3799       -1025.5      -10.0905      -231.008
        0.6995       28.2951      -1144.55      -25.4162      -205.935
        0.8194        31.648      -1222.36      -47.1971      -185.924
        0.9393       34.4807      -1265.75      -65.4852      -170.246
        1.0592       36.8173      -1279.76      -76.1217      -156.528
        1.1791       38.7109      -1270.91        -78.61      -142.878
         1.299       40.2418      -1246.66      -74.3428      -128.454
        1.4189       41.5073      -1214.22      -65.3955      -113.315
        1.5388       42.6028      -1179.49      -53.8282      -98.0315
        1.6587       43.6089      -1146.52      -41.3471      -83.3393
        1.7786        44.583      -1117.53      -29.1937      -69.8931
        1.8985       45.5576      -1093.23      -18.1664      -58.1491
        2.0184       46.5435      -1073.27      -8.69189      -48.3308
        2.1383       47.5356      -1056.74     -0.920409      -40.4551
        2.2582        48.519      -1042.47       5.18665      -34.3824
        2.3781       49.4754      -1029.31       9.78302      -29.8738
         2.498       50.3868      -1016.34       13.0818      -26.6418
        2.6179       51.2388      -1002.87       15.3147      -24.3921
        2.7378       52.0215      -988.471       16.7064      -22.8505
        2.8577       52.7301      -972.974       17.4594      -21.7801
        2.9776       53.3644      -956.392       17.7467      -20.9884
        3.0975       53.9275       -938.88        17.709      -20.3291
        3.2174       54.4259      -920.674       17.4563      -19.6984
        3.3373       54.8675      -902.059       17.0716      -19.0295
        3.4572       55.2612      -883.316        16.614      -18.2854
        3.5771       55.6163      -864.716       16.1242      -17.4525
         3.697       55.9417      -846.489        15.628      -16.5333
        3.8169       56.2453      -828.823       15.1401       -15.542
        3.9368       56.5342      -811.856       14.6674       -14.499
        4.0567       56.8141      -795.681       14.2116      -13.4277
        4.1766       57.0895      -780.351       13.7711      -12.3519
        4.2965       57.3638      -765.879       13.3426      -11.2937
        4.4164       57.6389      -752.251       12.9222      -10.2726
        4.5363       57.9161      -739.429       12.5061      -9.30461
        4.6562       58.1956       -727.36       12.0911      -8.40221
        4.7761       58.4772      -715.977       11.6749      -7.57428
         4.896       58.7599      -705.214       11.2561      -6.82636
        5.0159       59.0426      -694.995       10.8341      -6.16105
        5.1358       59.3238      -685.251       10.4094      -5.57837
        5.2557       59.6021      -675.915       9.98304      -5.07631
        5.3756        59.876      -666.928       9.55657      -4.65117
        5.4955       60.1442      -658.234       9.13203      -4.29803
        5.6154       60.4054      -649.787       8.71168      -4.01115
        5.7353       60.6586      -641.547       8.29787      -3.78427
        5.8552       60.9029      -633.481       7.89293      -3.61088
        5.9751       61.1377      -625.566        7.4991      -3.48441
         6.095       61.3626      -617.781        7.1184      -3.39849
        6.2149       61.5775      -610.113       6.75261      -3.34706
        6.3348       61.7823      -602.553       6.40322      -3.32442
        6.4547       61.9772      -595.096       6.07141      -3.32533
        6.5746       62.1625      -587.743       5.75803      -3.34507
        6.6945       62.3387      -580.493        5.4636      -3.37943
        6.8144       62.5063      -573.351       5.18835      -3.42471
        6.9343       62.6661      -566.321       4.93221      -3.47771
        7.0542       62.8187       -559.41       4.69487      -3.53572
        7.1741       62.9649      -552.624       4.47575      -3.59645
         7.294       63.1055       -545.97       4.27411      -3.65803
        7.4139       63.2412      -539.453       4.08902      -3.71895
        7.5338       63.3728       -533.08       3.91943      -3.77804
        7.6537       63.5012      -526.856       3.76419      -3.83437
        7.7736       63.6269      -520.785       3.62206      -3.88731
        7.8935       63.7506      -514.871       3.49179       -3.9364
        8.0134        63.873      -509.117       3.37209      -3.98136
        8.1333       63.9946      -503.523        3.2617      -4.02206
        8.2532       64.1159      -498.091       3.15937      -4.05846
        8.3731       64.2373       -492.82        3.0639      -4.09062
         8.493       64.3592      -487.708       2.97418      -4.11867
        8.6129       64.4819      -482.755       2.88913      -4.14278
        8.7328       64.6057      -477.956       2.80779      -4.16314
        8.8527       64.7306      -473.308       2.72927      -4.17996
        8.9726       64.8569      -468.808       2.65278      -4.19345
        9.0925       64.9847       -464.45       2.57764      -4.20383
        9.2124       65.1139      -460.229       2.50324      -4.21128
        9.3323       65.2445      -456.141        2.4291      -4.21598
        9.4522       65.3766       -452.18        2.3548       -4.2181
        9.5721       65.5099      -448.339       2.28005      -4.21777
         9.692       65.6445      -444.614        2.2046      -4.21509
        9.8119       65.7802      -440.998       2.12831      -4.21016
        9.9318       65.9168      -437.486       2.05111      -4.20304
       10.0517       66.0542      -434.071       1.97298      -4.19376
       10.1716       66.1922      -430.749       1.89397      -4.18235
       10.2915       66.3307      -427.514       1.81419      -4.16882
       10.4114       66.4695      -424.361       1.73378      -4.15315
       10.5313       66.6084      -421.285       1.65291      -4.13531
       10.6512       66.7473      -418.282        1.5718      -4.11527
       10.7711       66.8861      -415.347       1.49067      -4.09298
        10.891       67.0245      -412.476       1.40979      -4.06839
       11.0109       67.1624      -409.666       1.32939      -4.04146
       11.1308       67.2998      -406.913       1.24976      -4.01213
       11.2507       67.4365      -404.213       1.17113      -3.98033
       11.3706       67.5724      -401.565       1.09377      -3.94604
       11.4905       67.7075      -398.965       1.01793       -3.9092
       11.6104       67.8417      -396.411      0.943824      -3.86978
       11.7303       67.9749      -393.901      0.871672      -3.82775
       11.8502        68.107      -391.434      0.801666      -3.78308
       11.9701       68.2382      -389.006      0.733976      -3.73577
         12.09       68.3682      -386.618       0.66875      -3.68582
       12.2099       68.4972      -384.268       0.60611      -3.63324
       12.3298       68.6252      -381.954      0.546153      -3.57805
       12.4497        68.752      -379.675      0.488951      -3.52029
       12.5696       68.8779      -377.431      0.434552         -3.46
       12.6895       69.0027      -375.221      0.382975      -3.39725
       12.8094       69.1265      -373.045      0.334219       -3.3321
       12.9293       69.2494        -370.9      0.288256      -3.26463
       13.0492       69.3714      -368.788      0.245037      -3.19493
       13.1691       69.4924      -366.707      0.204494      -3.12311
        13.289       69.6127      -364.657      0.166541      -3.04926
       13.4089       69.7321      -362.637      0.131068      -2.97352
       13.5288       69.8507      -360.647     0.0979607      -2.89601
       13.6487       69.9686      -358.686     0.0670802      -2.81686
       13.7686       70.0858      -356.755      0.038285      -2.73621
       13.8885       70.2023      -354.852      0.011417      -2.65421
       14.0084       70.3181      -352.977    -0.0136818        -2.571
       14.1283       70.4334      -351.129    -0.0371808      -2.48674
       14.2482        70.548      -349.309    -0.0592508      -2.40158
       14.3681        70.662      -347.514    -0.0800637       -2.3157
        14.488       70.7754      -345.746    -0.0997911      -2.22923
       14.6079       70.8883      -344.002     -0.118603      -2.14236
       14.7278       71.0006      -342.284     -0.136667      -2.05522
       14.8477       71.1123      -340.589     -0.154144        -1.968
       14.9676       71.2234      -338.917     -0.171191      -1.88083
       15.0875        71.334      -337.269     -0.187955      -1.79389
       15.2074        71.444      -335.642     -0.204576      -1.70731
       15.3273       71.5533      -334.036     -0.221184      -1.62126
       15.4472        71.662      -332.451     -0.237898      -1.53588
       15.5671       71.7701      -330.887     -0.254832      -1.45129
        15.687       71.8775      -329.341     -0.272079      -1.36766
       15.8069       71.9842      -327.814     -0.289726      -1.28509
       15.9268       72.0902      -326.305      -0.30785      -1.20372
       16.0467       72.1955      -324.813     -0.326509      -1.12367
       16.1666          72.3      -323.339     -0.345757      -1.04505
       16.2865       72.4037       -321.88      -0.36563     -0.967952
       16.4064       72.5066      -320.437     -0.386152     -0.892489
       16.5263       72.6087      -319.008     -0.407343     -0.818748
       16.6462         72.71      -317.595     -0.429201     -0.746812
       16.7661       72.8104      -316.195      -0.45172     -0.676758
        16.886       72.9099      -314.809     -0.474882     -0.608656
       17.0059       73.0086      -313.435     -0.498661     -0.542569
       17.1258       73.1063      -312.075     -0.523021     -0.478551
       17.2457       73.2031      -310.727     -0.547917     -0.416649
       17.3656        73.299       -309.39     -0.573294     -0.356903
       17.4855        73.394      -308.066     -0.599096     -0.299347
       17.6054       73.4881      -306.753     -0.625256     -0.244007
       17.7253       73.5813      -305.451     -0.651705     -0.190904
       17.8452       73.6735       -304.16     -0.678366     -0.140049
       17.9651       73.7649      -302.879      -0.70516    -0.0914474
        18.085       73.8554       -301.61     -0.732004    -0.0450994
       18.2049        73.945      -300.351     -0.758815  -0.000999584
       18.3248       74.0337      -299.102     -0.785508     0.0408607
       18.4447       74.1216      -297.864     -0.811994     0.0805042
       18.5646       74.2087      -296.636     -0.838188       0.11795
       18.6845        74.295      -295.419     -0.864001      0.153225
       18.8044       74.3806      -294.212      -0.88935      0.186364
       18.9243       74.4654      -293.015      -0.91415      0.217399
       19.0442       74.5496      -291.828     -0.938321      0.246375
       19.1641        74.633      -290.652     -0.961784      0.273334
        19.284       74.7159      -289.487     -0.984462      0.298321
       19.4039       74.7981      -288.332      -1.00629      0.321392
       19.5238       74.8798      -287.187      -1.02719      0.342597
       19.6437        74.961      -286.053       -1.0471      0.361989
       19.7636       75.0416       -284.93      -1.06597       0.37963
       19.8835       75.1219      -283.818      -1.08374      0.395581
       20.0034       75.2017      -282.716      -1.10037        0.4099
       20.1233       75.2811      -281.626      -1.11581      0.422652
       20.2432       75.3602      -280.546      -1.13001      0.433898
       20.3631       75.4389      -279.478      -1.14296      0.443703
        20.483       75.5174       -278.42      -1.15462      0.452133
       20.6029       75.5956      -277.374      -1.16498      0.459253
       20.7228       75.6736      -276.338        -1.174      0.465128
       20.8427       75.7514      -275.314       -1.1817      0.469821
       20.9626       75.8291        -274.3      -1.18805      0.473398
       21.0825       75.9066      -273.298      -1.19307      0.475922
       21.2024       75.9839      -272.307      -1.19675      0.477457
       21.3223       76.0612      -271.327      -1.19911      0.478065
       21.4422       76.1384      -270.357      -1.20016      0.477802
       21.5621       76.2155      -269.399      -1.19992      0.476731
        21.682       76.2925      -268.451      -1.19841      0.474909
       21.8019       76.3695      -267.513      -1.19566      0.472391
       21.9218       76.4464      -266.587      -1.19171       0.46923
       22.0417       76.5233       -265.67      -1.18658      0.465482
       22.1616       76.6002      -264.764      -1.18032      0.461192
       22.2815        76.677      -263.867      -1.17297      0.456413
       22.4014       76.7538      -262.981      -1.16456      0.451188
       22.5213       76.8305      -262.104      -1.15515      0.445564
       22.6412       76.9072      -261.237      -1.14478      0.439578
       22.7611       76.9838      -260.379      -1.13351      0.433275
        22.881       77.0603      -259.529      -1.12138       0.42669
       23.0009       77.1368      -258.689      -1.10845      0.419858
       23.1208       77.2131      -257.857      -1.09477      0.412813
       23.2407       77.2894      -257.034      -1.08039      0.405586
       23.3606       77.3654      -256.218      -1.06538      0.398203
       23.4805       77.4414      -255.411      -1.04977      0.390693
       23.6004       77.5171       -254.61      -1.03364      0.383081
       23.7203       77.5927      -253.817      -1.01703      0.375388
       23.8402        77.668      -253.032     -0.999999      0.367635
       23.9601       77.7431      -252.253     -0.982597       0.35984
         24.08        77.818       -251.48     -0.964878       0.35202
       24.1999       77.8925      -250.714     -0.946893       0.34419
       24.3198       77.9667      -249.953     -0.928693      0.336363
       24.4397       78.0406      -249.198     -0.910326       0.32855
       24.5596       78.1141      -248.449     -0.891838      0.320762
       24.6795       78.1872      -247.705     -0.873276      0.313007
       24.7994       78.2599      -246.966     -0.854683      0.305292
       24.9193       78.3322      -246.232       -0.8361      0.297623
       25.0392        78.404      -245.503     -0.817568      0.290004
       25.1591       78.4753      -244.777     -0.799125       0.28244
        25.279       78.5461      -244.056     -0.780806      0.274933
       25.3989       78.6164      -243.339     -0.762645      0.267484
       25.5188       78.6861      -242.625     -0.744672      0.260095
       25.6387       78.7553      -241.916     -0.726917      0.252765
       25.7586       78.8239      -241.209     -0.709408      0.245494
       25.8785       78.8919      -240.506     -0.692168      0.238281
       25.9984       78.9592      -239.805      -0.67522      0.231124
       26.1183       79.0259      -239.108     -0.658585      0.224021
       26.2382        79.092      -238.414      -0.64228      0.216971
       26.3581       79.1574      -237.722     -0.626322       0.20997
        26.478       79.2222      -237.033     -0.610724      0.203016
       26.5979       79.2862      -236.346     -0.595499      0.196105
       26.7178       79.3496      -235.662     -0.580655      0.189237
       26.8377       79.4123       -234.98     -0.566202      0.182406
       26.9576       79.4744        -234.3     -0.552143      0.175611
       27.0775       79.5357      -233.623     -0.538485      0.168849
       27.1974       79.5963      -232.948     -0.525229      0.162118
       27.3173       79.6563      -232.275     -0.512376      0.155416
       27.4372       79.7155      -231.604     -0.499926       0.14874
       27.5571       79.7741      -230.935     -0.487876       0.14209
        27.677       79.8319      -230.268     -0.476221      0.135464
       27.7969       79.8891      -229.604     -0.464958       0.12886
       27.9168       79.9457      -228.941     -0.454081      0.122279
       28.0367       80.0016      -228.281      -0.44358       0.11572
       28.1566       80.0568      -227.623     -0.433448      0.109185
       28.2765       80.1114      -226.967     -0.423678      0.102672
       28.3964       80.1654      -226.314     -0.414256     0.0961852
       28.5163       80.2188      -225.662     -0.405173     0.0897245
       28.6362       80.2715      -225.013     -0.396417     0.0832926
       28.7561       80.3237      -224.366     -0.387974      0.076892
        28.876       80.3754      -223.722     -0.379834     0.0705259
       28.9959       80.4265       -223.08     -0.371981     0.0641975
       29.1158        80.477      -222.441     -0.364404     0.0579108
       29.2357       80.5271      -221.804     -0.357087     0.0516702
       29.3556       80.5766      -221.171     -0.350016     0.0454803
       29.4755       80.6257      -220.539     -0.343177     0.0393464
       29.5954       80.6744      -219.911     -0.336556     0.0332737
       29.7153       80.7226      -219.285     -0.330139     0.0272682
       29.8352       80.7704      -218.663      -0.32391     0.0213358
       29.9551       80.8178      -218.043     -0.317856     0.0154829
        30.075       80.8648      -217.427     -0.311962    0.00971623
       30.1949       80.9115      -216.814     -0.306214    0.00404254
       30.3148       80.9578      -216.204     -0.300599   -0.00153114
       30.4347       81.0038      -215.597     -0.295104   -0.00699767
       30.5546       81.0496      -214.993     -0.289716    -0.0123498
       30.6745        81.095      -214.393     -0.284421    -0.0175796
       30.7944       81.1402      -213.797     -0.279208    -0.0226801
       30.9143       81.1852      -213.204     -0.274065    -0.0276437
       31.0342         81.23      -212.614     -0.268981    -0.0324632
       31.1541       81.2745      -212.028     -0.263945      -0.03713
        31.274       81.3189      -211.446     -0.258946    -0.0416376
       31.3939       81.3631      -210.867     -0.253976    -0.0459791
       31.5138       81.4071      -210.293     -0.249023    -0.0501457
       31.6337        81.451      -209.722     -0.244081    -0.0541317
       31.7536       81.4948      -209.154     -0.239141    -0.0579305
       31.8735       81.5385      -208.591     -0.234195    -0.0615335
       31.9934        81.582      -208.031     -0.229237    -0.0649367
       32.1133       81.6255      -207.476      -0.22426    -0.0681319
       32.2332       81.6689      -206.924     -0.219259    -0.0711148
       32.3531       81.7122      -206.376     -0.214228     -0.073879
        32.473       81.7555      -205.832     -0.209162    -0.0764196
       32.5929       81.7988      -205.291     -0.204058    -0.0787316
       32.7128        81.842      -204.755     -0.198912    -0.0808108
       32.8327       81.8851      -204.222     -0.193721    -0.0826526
       32.9526       81.9282      -203.694     -0.188483    -0.0842548
       33.0725       81.9713      -203.169     -0.183194    -0.0856114
       33.1924       82.0144      -202.648     -0.177856    -0.0867232
       33.3123       82.0575      -202.131     -0.172465    -0.0875843
       33.4322       82.1005      -201.617     -0.167022    -0.0881951
       33.5521       82.1436      -201.107     -0.161527    -0.0885554
