# radius [kpc]; vcirc [km/s] ; f_x [km/s/s] ; f_y [km/s/s] ; f_z [km/s/s];
           0.1       3.18108      -101.193       839.565      -400.122
        0.2199       8.61571      -337.565       784.204      -399.346
        0.3398        14.003      -577.054       733.963      -378.678
        0.4597       18.8573      -773.544       680.115      -343.924
        0.5796       23.1059      -921.121       625.808      -304.091
        0.6995       26.8455      -1030.28        572.82      -264.167
        0.8194       30.1489      -1109.29       522.204      -226.902
        0.9393       33.0315      -1161.59       475.258      -194.178
        1.0592        35.583      -1195.38       432.549      -166.609
        1.1791       37.8606      -1215.69       394.038      -144.122
         1.299       39.8862      -1224.72       359.622      -126.338
        1.4189       41.7188      -1226.62        329.02      -112.607
        1.5388        43.395      -1223.76       301.776      -102.255
        1.6587        44.935      -1217.31       277.472      -94.5906
        1.7786       46.3714      -1208.99       255.719      -88.9461
        1.8985       47.7243      -1199.69       236.137      -84.7907
        2.0184       49.0086      -1189.98        218.42      -81.6509
        2.1383       50.2392      -1180.36       202.327      -79.1502
        2.2582       51.4253      -1171.09       187.646      -77.0139
        2.3781       52.5758      -1162.36       174.227      -75.0327
         2.498       53.6955      -1154.21       161.954       -73.074
        2.6179       54.7876       -1146.6       150.728      -71.0439
        2.7378       55.8558      -1139.55       140.479      -68.9099
        2.8577       56.8996      -1132.93       131.144      -66.6631
        2.9776       57.9213       -1126.7       122.669      -64.3047
        3.0975       58.9193      -1120.74           115      -61.8752
        3.2174        59.893      -1114.93       108.089      -59.4025
        3.3373       60.8421      -1109.21       101.883       -56.925
        3.4572       61.7653      -1103.48       96.3255       -54.484
        3.5771       62.6622      -1097.69       91.3712      -52.1071
         3.697       63.5318      -1091.77       86.9561      -49.8272
        3.8169       64.3742      -1085.71       83.0279      -47.6646
        3.9368       65.1884      -1079.44       79.5361       -45.635
        4.0567       65.9752      -1072.97       76.4213      -43.7468
        4.1766       66.7352      -1066.32       73.6415      -42.0042
        4.2965       67.4685      -1059.47       71.1441      -40.4035
        4.4164       68.1768      -1052.46       68.8882      -38.9383
        4.5363       68.8604      -1045.29       66.8359      -37.5988
        4.6562       69.5212      -1038.01       64.9503      -36.3703
        4.7761       70.1608      -1030.66       63.2045      -35.2406
         4.896       70.7805      -1023.26       61.5702      -34.1918
        5.0159        71.382      -1015.85       60.0271      -33.2092
        5.1358       71.9669      -1008.46       58.5571      -32.2769
        5.2557       72.5368      -1001.12       57.1465      -31.3808
        5.3756       73.0932      -993.865       55.7841      -30.5071
        5.4955       73.6373      -986.707       54.4629      -29.6455
        5.6154       74.1708      -979.683        53.176      -28.7839
        5.7353       74.6946      -972.797       51.9214      -27.9171
        5.8552       75.2093      -966.055       50.6963      -27.0365
        5.9751       75.7164      -959.477        49.501      -26.1401
         6.095       76.2158       -953.05       48.3356      -25.2239
        6.2149       76.7086      -946.792       47.2016      -24.2878
        6.3348       77.1945      -940.676       46.1005      -23.3325
        6.4547       77.6745      -934.719       45.0342      -22.3592
        6.5746       78.1477      -928.888       44.0048      -21.3719
        6.6945        78.615      -923.193       43.0139      -20.3729
        6.8144       79.0753      -917.601       42.0631      -19.3684
        6.9343       79.5292      -912.118       41.1537      -18.3611
        7.0542       79.9758      -906.712       40.2863      -17.3585
        7.1741       80.4152      -901.383       39.4619      -16.3636
         7.294       80.8467      -896.106       38.6795      -15.3836
        7.4139       81.2703      -890.875       37.9398      -14.4219
        7.5338       81.6853      -885.674       37.2407      -13.4844
        7.6537       82.0916      -880.492       36.5822      -12.5748
        7.7736       82.4887       -875.32       35.9614      -11.6974
        7.8935       82.8765      -870.148       35.3774      -10.8557
        8.0134       83.2548       -864.97        34.827      -10.0522
        8.1333       83.6231      -859.777       34.3087      -9.29015
        8.2532       83.9817      -854.569       33.8189      -8.57022
        8.3731       84.3302      -849.337       33.3558      -7.89507
         8.493       84.6689      -844.086       32.9157      -7.26401
        8.6129       84.9975      -838.809       32.4964      -6.67883
        8.7328       85.3165      -833.513       32.0946      -6.13783
        8.8527       85.6256      -828.194       31.7077      -5.64176
        8.9726       85.9255       -822.86        31.333      -5.18839
        9.0925        86.216      -817.509       30.9679      -4.77732
        9.2124       86.4977       -812.15       30.6099       -4.4062
        9.3323       86.7707      -806.784       30.2567      -4.07345
        9.4522       87.0355       -801.42       29.9061      -3.77693
        9.5721       87.2924      -796.059       29.5565      -3.51401
         9.692       87.5418       -790.71       29.2058      -3.28295
        9.8119       87.7841      -785.378       28.8529      -3.08027
        9.9318       88.0197      -780.067        28.496      -2.90471
       10.0517        88.249      -774.783       28.1347      -2.75241
       10.1716       88.4725      -769.533       27.7673      -2.62199
       10.2915       88.6905       -764.32       27.3939      -2.51014
       10.4114       88.9035      -759.151       27.0136      -2.41493
       10.5313       89.1117      -754.027       26.6262      -2.33396
       10.6512       89.3157      -748.957        26.232      -2.26491
       10.7711       89.5156      -743.939       25.8303      -2.20606
        10.891       89.7118      -738.977       25.4222      -2.15512
       11.0109       89.9049      -734.081       25.0071      -2.11069
       11.1308       90.0947      -729.243       24.5863      -2.07092
       11.2507        90.282      -724.473       24.1601      -2.03444
       11.3706       90.4664      -719.766        23.729      -1.99997
       11.4905       90.6487      -715.128       23.2943      -1.96636
       11.6104       90.8286      -710.555        22.856      -1.93259
       11.7303       91.0064      -706.048       22.4158      -1.89788
       11.8502       91.1826      -701.614       21.9742      -1.86147
       11.9701       91.3568      -697.242       21.5322      -1.82281
         12.09       91.5294       -692.94       21.0912      -1.78155
       12.2099       91.7003      -688.699       20.6514      -1.73713
       12.3298       91.8696      -684.522       20.2144      -1.68958
       12.4497       92.0376      -680.411        19.781      -1.63865
       12.5696       92.2038      -676.357       19.3521      -1.58428
       12.6895       92.3684      -672.361       18.9286      -1.52669
       12.8094       92.5319      -668.427       18.5114      -1.46572
       12.9293       92.6935      -664.544       18.1013      -1.40175
       13.0492       92.8538      -660.717       17.6992      -1.33501
       13.1691       93.0123      -656.938       17.3056      -1.26556
        13.289       93.1691      -653.208       16.9213      -1.19393
       13.4089       93.3244      -649.527        16.547      -1.12032
       13.5288       93.4778      -645.889        16.183      -1.04506
       13.6487       93.6294      -642.293       15.8299     -0.968613
       13.7686       93.7794      -638.742       15.4882      -0.89121
       13.8885       93.9273      -635.226       15.1582     -0.813271
       14.0084       94.0733      -631.748         14.84     -0.735185
       14.1283       94.2174      -628.308       14.5341     -0.657209
       14.2482       94.3594        -624.9       14.2404     -0.579738
       14.3681       94.4993      -621.523        13.959     -0.503086
        14.488       94.6372      -618.181       13.6903     -0.427513
       14.6079       94.7729      -614.866       13.4339     -0.353323
       14.7278       94.9064      -611.579       13.1896     -0.280754
       14.8477       95.0378      -608.323       12.9578     -0.210045
       14.9676        95.167      -605.091       12.7379     -0.141385
       15.0875       95.2939      -601.884       12.5297    -0.0749354
       15.2074       95.4187      -598.704       12.3332    -0.0108888
       15.3273       95.5412      -595.547       12.1478     0.0506688
       15.4472       95.6615      -592.413       11.9731      0.109659
       15.5671       95.7797      -589.304       11.8091      0.165955
        15.687       95.8957      -586.217       11.6552      0.219541
       15.8069       96.0095      -583.151       11.5109      0.270423
       15.9268       96.1212      -580.109       11.3758      0.318559
       16.0467       96.2307      -577.088       11.2495      0.363958
       16.1666       96.3382      -574.088       11.1315      0.406714
       16.2865       96.4437      -571.111       11.0211      0.446872
       16.4064       96.5472      -568.154       10.9183      0.484434
       16.5263       96.6487      -565.218       10.8221      0.519571
       16.6462       96.7482      -562.304       10.7321      0.552385
       16.7661       96.8461      -559.412       10.6481      0.582927
        16.886        96.942      -556.541       10.5693      0.611354
       17.0059       97.0361       -553.69       10.4952      0.637822
       17.1258       97.1286      -550.863       10.4255      0.662454
       17.2457       97.2194      -548.056       10.3596      0.685348
       17.3656       97.3085      -545.271       10.2971      0.706707
       17.4855       97.3961      -542.507       10.2375      0.726674
       17.6054       97.4823      -539.766       10.1803      0.745378
       17.7253       97.5669      -537.046       10.1253      0.762968
       17.8452       97.6501      -534.348       10.0718      0.779613
       17.9651        97.732      -531.672       10.0197      0.795453
        18.085       97.8126      -529.019       9.96844      0.810619
       18.2049       97.8919      -526.387       9.91776      0.825256
       18.3248       97.9699      -523.777       9.86731        0.8395
       18.4447       98.0467      -521.188       9.81682      0.853474
       18.5646       98.1226      -518.623       9.76595      0.867302
       18.6845       98.1972      -516.079       9.71447      0.881098
       18.8044       98.2707      -513.557       9.66216      0.894963
       18.9243       98.3432      -511.056       9.60881      0.908991
       19.0442       98.4148      -508.578       9.55417      0.923286
       19.1641       98.4853      -506.121       9.49806       0.93793
        19.284       98.5549      -503.685       9.44039      0.952981
       19.4039       98.6235       -501.27       9.38102      0.968501
       19.5238       98.6914      -498.878       9.31981      0.984554
       19.6437       98.7583      -496.505       9.25659       1.00121
       19.7636       98.8244      -494.154       9.19139       1.01848
       19.8835       98.8895      -491.822       9.12414       1.03638
       20.0034       98.9539      -489.511       9.05481       1.05495
       20.1233       99.0176      -487.221       8.98328       1.07422
       20.2432       99.0804      -484.949       8.90957       1.09418
       20.3631       99.1424      -482.697       8.83375       1.11482
        20.483       99.2036      -480.465       8.75583       1.13613
       20.6029       99.2641      -478.251       8.67583       1.15809
       20.7228       99.3239      -476.057        8.5937       1.18072
       20.8427       99.3828      -473.881       8.50958       1.20395
       20.9626        99.441      -471.722       8.42354       1.22775
       21.0825       99.4985      -469.581       8.33567       1.25209
       21.2024       99.5551      -467.458       8.24605        1.2769
       21.3223       99.6112      -465.353       8.15468       1.30218
       21.4422       99.6664      -463.264       8.06172       1.32785
       21.5621       99.7209      -461.191        7.9673       1.35385
        21.682       99.7746      -459.135       7.87152       1.38012
       21.8019       99.8276      -457.095       7.77451       1.40659
       21.9218       99.8799      -455.072       7.67635       1.43321
       22.0417       99.9313      -453.063       7.57713       1.45992
       22.1616       99.9821      -451.069       7.47702       1.48664
       22.2815       100.032       -449.09       7.37617        1.5133
       22.4014       100.081      -447.126       7.27469       1.53982
       22.5213        100.13      -445.176        7.1727       1.56615
       22.6412       100.177      -443.241       7.07032        1.5922
       22.7611       100.224       -441.32       6.96766       1.61792
        22.881        100.27      -439.411       6.86487       1.64323
       23.0009       100.316      -437.517       6.76208       1.66805
       23.1208       100.361      -435.635       6.65942       1.69232
       23.2407       100.404      -433.766       6.55699       1.71598
       23.3606       100.447       -431.91       6.45492       1.73897
       23.4805        100.49      -430.068       6.35329        1.7612
       23.6004       100.531      -428.237       6.25224       1.78263
       23.7203       100.572      -426.418       6.15188       1.80319
       23.8402       100.612      -424.612        6.0523       1.82284
       23.9601       100.652      -422.817       5.95361       1.84152
         24.08        100.69      -421.034        5.8559       1.85917
       24.1999       100.728      -419.262       5.75926       1.87576
       24.3198       100.765      -417.502       5.66377       1.89122
       24.4397       100.801      -415.754       5.56951       1.90551
       24.5596       100.837      -414.016       5.47656        1.9186
       24.6795       100.872      -412.289       5.38499       1.93046
       24.7994       100.906      -410.573       5.29487       1.94105
       24.9193       100.939      -408.868       5.20624       1.95035
       25.0392       100.972      -407.174       5.11918       1.95833
       25.1591       101.004       -405.49       5.03373       1.96497
        25.279       101.035      -403.817       4.94992       1.97024
       25.3989       101.066      -402.154       4.86783       1.97411
       25.5188       101.096      -400.502       4.78747       1.97658
       25.6387       101.125       -398.86       4.70887       1.97765
       25.7586       101.154      -397.228       4.63206       1.97731
       25.8785       101.181      -395.606       4.55706       1.97556
       25.9984       101.209      -393.994       4.48389       1.97239
       26.1183       101.235      -392.393       4.41256       1.96781
       26.2382       101.262      -390.801       4.34308       1.96182
       26.3581       101.287      -389.219       4.27546       1.95443
        26.478       101.312      -387.647       4.20969       1.94566
       26.5979       101.336      -386.085       4.14577       1.93551
       26.7178        101.36      -384.533       4.08372       1.92397
       26.8377       101.383       -382.99       4.02351        1.9111
       26.9576       101.406      -381.457       3.96513        1.8969
       27.0775       101.428      -379.934       3.90855       1.88141
       27.1974        101.45       -378.42       3.85377       1.86464
       27.3173       101.471      -376.916       3.80076       1.84663
       27.4372       101.491      -375.421       3.74949        1.8274
       27.5571       101.512      -373.936       3.69994       1.80698
        27.677       101.531       -372.46       3.65209       1.78541
       27.7969        101.55      -370.994        3.6059       1.76271
       27.9168       101.569      -369.536       3.56134       1.73893
       28.0367       101.587      -368.089       3.51837        1.7141
       28.1566       101.605       -366.65       3.47696       1.68826
       28.2765       101.623      -365.221       3.43708       1.66144
       28.3964        101.64      -363.801       3.39869       1.63368
       28.5163       101.656       -362.39       3.36174       1.60504
       28.6362       101.673      -360.989        3.3262       1.57552
       28.7561       101.689      -359.596       3.29204        1.5452
        28.876       101.704      -358.212       3.25919       1.51411
       28.9959       101.719      -356.837       3.22763       1.48229
       29.1158       101.734      -355.471       3.19731       1.44979
       29.2357       101.749      -354.114       3.16819       1.41665
       29.3556       101.763      -352.766       3.14022       1.38292
       29.4755       101.777      -351.427       3.11336       1.34863
       29.5954        101.79      -350.096       3.08758       1.31383
       29.7153       101.803      -348.774       3.06281       1.27857
       29.8352       101.816       -347.46       3.03904       1.24289
       29.9551       101.829      -346.155        3.0162       1.20683
        30.075       101.841      -344.859       2.99427       1.17043
       30.1949       101.853       -343.57        2.9732       1.13374
       30.3148       101.865      -342.291       2.95295       1.09679
       30.4347       101.876      -341.019       2.93347       1.05964
       30.5546       101.888      -339.756       2.91474       1.02231
       30.6745       101.899      -338.501       2.89672      0.984856
       30.7944       101.909      -337.254       2.87936      0.947308
       30.9143        101.92      -336.015       2.86263      0.909707
       31.0342        101.93      -334.784       2.84649      0.872091
       31.1541        101.94      -333.561       2.83091      0.834497
        31.274        101.95      -332.346       2.81586       0.79696
       31.3939       101.959      -331.138       2.80131      0.759516
       31.5138       101.969      -329.939       2.78721      0.722199
       31.6337       101.978      -328.747       2.77355      0.685041
       31.7536       101.987      -327.562       2.76029      0.648076
       31.8735       101.995      -326.385       2.74741      0.611333
       31.9934       102.004      -325.215       2.73487      0.574843
       32.1133       102.012      -324.053       2.72265      0.538635
       32.2332        102.02      -322.898       2.71074      0.502737
       32.3531       102.027       -321.75       2.69909      0.467174
        32.473       102.035      -320.609        2.6877      0.431974
       32.5929       102.042      -319.475       2.67653       0.39716
       32.7128       102.049      -318.349       2.66557      0.362756
       32.8327       102.056      -317.229       2.65481      0.328783
       32.9526       102.063      -316.116       2.64421      0.295263
       33.0725       102.069       -315.01       2.63377      0.262216
       33.1924       102.076       -313.91       2.62347      0.229661
       33.3123       102.082      -312.817       2.61329      0.197615
       33.4322       102.087       -311.73       2.60322      0.166096
       33.5521       102.093      -310.651       2.59325      0.135119
