# radius [kpc]; vcirc [km/s] ; f_x [km/s/s] ; f_y [km/s/s] ; f_z [km/s/s];
           0.1           nan       117.539             0    7.1972e-15      -800.857    -0.0431268
        0.2199       1.18283      -6.36233            -0   -3.8958e-16       450.553     0.0242627
        0.3398       7.34975      -158.972            -0  -9.73426e-15       750.695     0.0404255
        0.4597       11.7496      -300.314            -0  -1.83889e-14       822.972     0.0443177
        0.5796       15.6056       -420.18            -0  -2.57286e-14       812.046     0.0437293
        0.6995       19.0589       -519.29            -0  -3.17973e-14       765.961     0.0412476
        0.8194       22.1698      -599.827            -0  -3.67288e-14       705.067     0.0379684
        0.9393       24.9327      -661.811            -0  -4.05243e-14       640.571     0.0344953
        1.0592         27.41      -709.315            -0   -4.3433e-14       578.028     0.0311273
        1.1791       29.6416      -745.164            -0  -4.56281e-14       519.862      0.027995
         1.299       31.6291       -770.13            -0  -4.71569e-14       467.379     0.0251688
        1.4189       33.4226      -787.281            -0  -4.82071e-14       420.954     0.0226687
        1.5388       35.0532      -798.496            -0  -4.88938e-14       380.329      0.020481
        1.6587       36.5288      -804.456            -0  -4.92588e-14       345.083      0.018583
        1.7786       37.8834      -806.899            -0  -4.94083e-14       314.647      0.016944
        1.8985       39.1374      -806.816            -0  -4.94032e-14       288.413     0.0155313
        2.0184       40.3003      -804.653            -0  -4.92708e-14       265.792     0.0143131
        2.1383       41.3913      -801.215            -0  -4.90603e-14       246.227     0.0132595
        2.2582       42.4223       -796.94            -0  -4.87985e-14       229.245      0.012345
        2.3781       43.4006      -792.065            -0     -4.85e-14       214.411     0.0115462
         2.498       44.3357      -786.891            -0  -4.81832e-14        201.36     0.0108434
        2.6179       45.2336      -781.571            -0  -4.78574e-14       189.799     0.0102208
        2.7378       46.0987      -776.204            -0  -4.75288e-14       179.464    0.00966431
        2.8577       46.9351      -770.865            -0  -4.72019e-14       170.153    0.00916286
        2.9776       47.7456      -765.596            -0  -4.68792e-14       161.699    0.00870761
        3.0975       48.5322      -760.411            -0  -4.65618e-14       153.964    0.00829108
        3.2174       49.2965      -755.312            -0  -4.62495e-14       146.841    0.00790753
        3.3373       50.0398      -750.303            -0  -4.59428e-14       140.245     0.0075523
        3.4572        50.763      -745.367            -0  -4.56406e-14       134.106    0.00722171
        3.5771       51.4667      -740.494            -0  -4.53422e-14       128.369    0.00691275
         3.697       52.1516      -735.674            -0   -4.5047e-14        122.99    0.00662313
        3.8169        52.818      -730.892            -0  -4.47543e-14       117.936    0.00635092
        3.9368       53.4666      -726.143            -0  -4.44635e-14       113.174    0.00609454
        4.0567       54.0978      -721.417            -0   -4.4174e-14       108.684    0.00585275
        4.1766        54.712      -716.707            -0  -4.38857e-14       104.444    0.00562439
        4.2965       55.3096      -712.011            -0  -4.35981e-14       100.436    0.00540857
        4.4164       55.8913      -707.326            -0  -4.33112e-14       96.6455    0.00520444
        4.5363       56.4574      -702.651            -0  -4.30249e-14       93.0578    0.00501124
        4.6562       57.0085      -697.986            -0  -4.27393e-14       89.6607     0.0048283
        4.7761        57.545      -693.334            -0  -4.24545e-14        86.442    0.00465497
         4.896       58.0677      -688.695            -0  -4.21704e-14       83.3909    0.00449067
        5.0159       58.5768      -684.073            -0  -4.18874e-14       80.4967    0.00433481
        5.1358        59.073      -679.469            -0  -4.16055e-14       77.7496    0.00418688
        5.2557       59.5567      -674.886            -0  -4.13249e-14       75.1402    0.00404636
        5.3756       60.0284      -670.327            -0  -4.10457e-14       72.6596    0.00391278
        5.4955       60.4885      -665.793            -0   -4.0768e-14       70.2993    0.00378568
        5.6154       60.9376      -661.287            -0  -4.04922e-14       68.0514    0.00366463
        5.7353       61.3759       -656.81            -0   -4.0218e-14       65.9085    0.00354923
        5.8552       61.8038      -652.363            -0  -3.99457e-14       63.8636     0.0034391
        5.9751       62.2218      -647.948            -0  -3.96754e-14       61.9101    0.00333391
         6.095         62.63      -643.563            -0  -3.94069e-14        60.042    0.00323331
        6.2149       63.0289      -639.213            -0  -3.91405e-14       58.2537    0.00313701
        6.3348       63.4186      -634.893            -0   -3.8876e-14       56.5402    0.00304474
        6.4547       63.7995      -630.607            -0  -3.86135e-14       54.8967    0.00295623
        6.5746       64.1717      -626.351            -0  -3.83529e-14       53.3189    0.00287127
        6.6945       64.5356      -622.129            -0  -3.80944e-14       51.8028    0.00278963
        6.8144       64.8912      -617.936            -0  -3.78377e-14       50.3451    0.00271112
        6.9343       65.2388      -613.775            -0  -3.75829e-14       48.9422    0.00263558
        7.0542       65.5785      -609.643            -0  -3.73299e-14       47.5916    0.00256284
        7.1741       65.9107      -605.542            -0  -3.70788e-14       46.2901    0.00249276
         7.294       66.2353      -601.469            -0  -3.68293e-14       45.0359    0.00242522
        7.4139       66.5527      -597.426            -0  -3.65818e-14       43.8263    0.00236008
        7.5338       66.8628      -593.411            -0  -3.63359e-14       42.6596    0.00229725
        7.6537        67.166      -589.423            -0  -3.60917e-14       41.5339    0.00223663
        7.7736       67.4623      -585.464            -0  -3.58493e-14       40.4475    0.00217813
        7.8935       67.7519      -581.532            -0  -3.56086e-14        39.399    0.00212167
        8.0134        68.035      -577.627            -0  -3.53695e-14       38.3869    0.00206717
        8.1333       68.3118      -573.752            -0  -3.51322e-14       37.4099    0.00201455
        8.2532       68.5823      -569.904            -0  -3.48966e-14       36.4668    0.00196377
        8.3731       68.8469      -566.086            -0  -3.46628e-14       35.5564    0.00191474
         8.493       69.1055      -562.296            -0  -3.44307e-14       34.6776    0.00186742
        8.6129       69.3586      -558.536            -0  -3.42005e-14       33.8294    0.00182174
        8.7328        69.606      -554.805            -0   -3.3972e-14       33.0107    0.00177765
        8.8527       69.8482      -551.106            -0  -3.37455e-14       32.2206    0.00173511
        8.9726       70.0852      -547.437            -0  -3.35208e-14       31.4581    0.00169404
        9.0925       70.3172      -543.801            -0  -3.32982e-14       30.7223    0.00165442
        9.2124       70.5443      -540.195            -0  -3.30774e-14       30.0123    0.00161619
        9.3323       70.7668      -536.625            -0  -3.28588e-14       29.3271    0.00157929
        9.4522       70.9848      -533.086            -0  -3.26421e-14        28.666    0.00154369
        9.5721       71.1985      -529.583            -0  -3.24276e-14        28.028    0.00150933
         9.692        71.408      -526.114            -0  -3.22152e-14       27.4123    0.00147617
        9.8119       71.6135      -522.681            -0   -3.2005e-14        26.818    0.00144417
        9.9318       71.8152      -519.283            -0  -3.17969e-14       26.2444    0.00141328
       10.0517        72.013       -515.92            -0   -3.1591e-14       25.6905    0.00138346
       10.1716       72.2076      -512.597            -0  -3.13875e-14       25.1557    0.00135466
       10.2915       72.3985      -509.309            -0  -3.11862e-14       24.6391    0.00132684
       10.4114       72.5864      -506.059            -0  -3.09872e-14         24.14    0.00129996
       10.5313        72.771      -502.845            -0  -3.07904e-14       23.6576    0.00127398
       10.6512       72.9527      -499.671            -0   -3.0596e-14       23.1911    0.00124886
       10.7711       73.1314      -496.533            -0  -3.04039e-14       22.7399    0.00122456
        10.891       73.3073      -493.431            -0  -3.02139e-14       22.3032    0.00120104
       11.0109       73.4807       -490.37            -0  -3.00265e-14       21.8804    0.00117828
       11.1308       73.6514      -487.344            -0  -2.98412e-14       21.4708    0.00115622
       11.2507       73.8197      -484.357            -0  -2.96583e-14       21.0739    0.00113484
       11.3706       73.9855      -481.405            -0  -2.94775e-14       20.6889    0.00111411
       11.4905       74.1492      -478.491            -0  -2.92991e-14       20.3153    0.00109399
       11.6104       74.3105      -475.612            -0  -2.91228e-14       19.9526    0.00107446
       11.7303       74.4696      -472.768            -0  -2.89487e-14       19.6001    0.00105548
       11.8502       74.6267      -469.962            -0  -2.87769e-14       19.2574    0.00103703
       11.9701       74.7817      -467.189            -0  -2.86071e-14       18.9241    0.00101908
         12.09       74.9347      -464.451            -0  -2.84394e-14       18.5995     0.0010016
       12.2099       75.0858      -461.746            -0  -2.82738e-14       18.2834   0.000984574
       12.3298       75.2348      -459.073            -0  -2.81101e-14       17.9752   0.000967978
       12.4497       75.3822      -456.435            -0  -2.79486e-14       17.6746    0.00095179
       12.5696       75.5275      -453.826            -0  -2.77888e-14       17.3812    0.00093599
       12.6895        75.671      -451.248            -0  -2.76309e-14       17.0946   0.000920559
       12.8094        75.813      -448.702            -0  -2.74751e-14       16.8146    0.00090548
       12.9293       75.9529      -446.184            -0  -2.73209e-14       16.5408   0.000890736
       13.0492       76.0912      -443.696            -0  -2.71685e-14       16.2729   0.000876311
       13.1691       76.2277      -441.234            -0  -2.70178e-14       16.0107   0.000862191
        13.289       76.3623      -438.799            -0  -2.68687e-14        15.754   0.000848364
       13.4089       76.4954      -436.393            -0  -2.67214e-14       15.5024   0.000834816
       13.5288       76.6267      -434.011            -0  -2.65755e-14       15.2558   0.000821535
       13.6487       76.7561      -431.653            -0  -2.64311e-14       15.0139   0.000808512
       13.7686       76.8841      -429.322            -0  -2.62884e-14       14.7767   0.000795736
       13.8885       77.0101      -427.012            -0   -2.6147e-14       14.5438   0.000783198
       14.0084       77.1344      -424.725            -0  -2.60069e-14       14.3153   0.000770891
       14.1283       77.2572      -422.462            -0  -2.58684e-14       14.0909   0.000758805
       14.2482       77.3781      -420.219            -0   -2.5731e-14       13.8704   0.000746935
       14.3681       77.4972      -417.997            -0  -2.55949e-14       13.6539   0.000735275
        14.488       77.6148      -415.797            -0  -2.54602e-14       13.4411   0.000723816
       14.6079       77.7305      -413.614            -0  -2.53266e-14        13.232   0.000712555
       14.7278       77.8445      -411.451            -0  -2.51941e-14       13.0265   0.000701489
       14.8477       77.9569      -409.307            -0  -2.50629e-14       12.8245   0.000690608
       14.9676       78.0674      -407.181            -0  -2.49326e-14       12.6259   0.000679913
       15.0875       78.1762      -405.071            -0  -2.48035e-14       12.4306     0.0006694
       15.2074       78.2833       -402.98            -0  -2.46754e-14       12.2387   0.000659062
       15.3273       78.3887      -400.905            -0  -2.45483e-14       12.0499   0.000648898
       15.4472       78.4923      -398.845            -0  -2.44222e-14       11.8644   0.000638906
       15.5671       78.5943      -396.802            -0  -2.42971e-14       11.6819   0.000629082
        15.687       78.6944      -394.774            -0  -2.41729e-14       11.5026   0.000619424
       15.8069       78.7929       -392.76            -0  -2.40496e-14       11.3263    0.00060993
       15.9268       78.8897      -390.762            -0  -2.39273e-14        11.153   0.000600597
       16.0467       78.9848      -388.777            -0  -2.38057e-14       10.9826   0.000591424
       16.1666       79.0781      -386.807            -0  -2.36851e-14       10.8152   0.000582408
       16.2865       79.1699      -384.851            -0  -2.35653e-14       10.6507   0.000573549
       16.4064       79.2599      -382.908            -0  -2.34463e-14        10.489   0.000564844
       16.5263       79.3483      -380.978            -0  -2.33282e-14       10.3302   0.000556291
       16.6462        79.435      -379.061            -0  -2.32108e-14       10.1742    0.00054789
       16.7661       79.5202      -377.157            -0  -2.30942e-14        10.021   0.000539637
        16.886       79.6037      -375.266            -0  -2.29784e-14       9.87047   0.000531533
       17.0059       79.6856      -373.388            -0  -2.28634e-14       9.72269   0.000523575
       17.1258        79.766      -371.522            -0  -2.27492e-14        9.5776   0.000515761
       17.2457       79.8448      -369.668            -0  -2.26356e-14       9.43515   0.000508091
       17.3656        79.922      -367.826            -0  -2.25229e-14       9.29535   0.000500562
       17.4855       79.9977      -365.997            -0  -2.24108e-14       9.15814   0.000493173
       17.6054        80.072       -364.18            -0  -2.22996e-14       9.02351   0.000485923
       17.7253       80.1448      -362.374            -0   -2.2189e-14       8.89141    0.00047881
       17.8452       80.2161       -360.58            -0  -2.20792e-14       8.76183   0.000471831
       17.9651        80.286      -358.798            -0    -2.197e-14       8.63472   0.000464987
        18.085       80.3545      -357.028            -0  -2.18617e-14       8.51006   0.000458274
       18.2049       80.4217       -355.27            -0   -2.1754e-14       8.38781   0.000451691
       18.3248       80.4875      -353.523            -0   -2.1647e-14       8.26795   0.000445236
       18.4447       80.5519      -351.787            -0  -2.15407e-14       8.15043   0.000438907
       18.5646       80.6151      -350.064            -0  -2.14352e-14       8.03523   0.000432704
       18.6845        80.677      -348.352            -0  -2.13304e-14       7.92231   0.000426623
       18.8044       80.7377      -346.651            -0  -2.12263e-14       7.81163   0.000420662
       18.9243       80.7971      -344.962            -0  -2.11228e-14       7.70315   0.000414821
       19.0442       80.8554      -343.286            -0  -2.10202e-14       7.59685   0.000409096
       19.1641       80.9125       -341.62            -0  -2.09182e-14       7.49268   0.000403487
        19.284       80.9685      -339.965            -0  -2.08169e-14       7.39061    0.00039799
       19.4039       81.0233      -338.322            -0  -2.07163e-14        7.2906   0.000392605
       19.5238       81.0771      -336.692            -0  -2.06164e-14        7.1926   0.000387328
       19.6437       81.1299      -335.072            -0  -2.05172e-14        7.0966   0.000382158
       19.7636       81.1815      -333.464            -0  -2.04188e-14       7.00254   0.000377092
       19.8835       81.2322      -331.867            -0   -2.0321e-14       6.91038    0.00037213
       20.0034       81.2819      -330.281            -0  -2.02239e-14       6.82008   0.000367267
       20.1233       81.3308      -328.708            -0  -2.01276e-14       6.73162   0.000362503
       20.2432       81.3786      -327.146            -0  -2.00319e-14       6.64495   0.000357836
       20.3631       81.4256      -325.595            -0   -1.9937e-14       6.56003   0.000353263
        20.483       81.4717      -324.056            -0  -1.98427e-14       6.47682   0.000348782
       20.6029       81.5169      -322.527            -0  -1.97491e-14       6.39528   0.000344391
       20.7228       81.5614      -321.012            -0  -1.96563e-14       6.31538   0.000340088
       20.8427        81.605      -319.506            -0  -1.95641e-14       6.23707   0.000335872
       20.9626       81.6478      -318.012            -0  -1.94726e-14       6.16033   0.000331739
       21.0825       81.6899       -316.53            -0  -1.93819e-14        6.0851   0.000327688
       21.2024       81.7312      -315.058            -0  -1.92918e-14       6.01135   0.000323716
       21.3223        81.772      -313.599            -0  -1.92024e-14       5.93906   0.000319823
       21.4422       81.8119       -312.15            -0  -1.91137e-14       5.86818   0.000316006
       21.5621       81.8512      -310.713            -0  -1.90257e-14       5.79867   0.000312263
        21.682       81.8898      -309.286            -0  -1.89383e-14       5.73049   0.000308592
       21.8019       81.9278       -307.87            -0  -1.88516e-14       5.66362   0.000304991
       21.9218       81.9652      -306.466            -0  -1.87657e-14       5.59802   0.000301458
       22.0417        82.002      -305.073            -0  -1.86803e-14       5.53366   0.000297992
       22.1616       82.0382       -303.69            -0  -1.85957e-14        5.4705   0.000294591
       22.2815       82.0738      -302.319            -0  -1.85117e-14        5.4085   0.000291252
       22.4014       82.1089      -300.958            -0  -1.84283e-14       5.34765   0.000287975
       22.5213       82.1434      -299.607            -0  -1.83457e-14       5.28789   0.000284757
       22.6412       82.1776      -298.268            -0  -1.82637e-14       5.22922   0.000281598
       22.7611       82.2111      -296.939            -0  -1.81823e-14       5.17159   0.000278494
        22.881       82.2441      -295.621            -0  -1.81016e-14       5.11498   0.000275446
       23.0009       82.2767      -294.313            -0  -1.80215e-14       5.05935    0.00027245
       23.1208       82.3088      -293.015            -0   -1.7942e-14       5.00468   0.000269506
       23.2407       82.3404      -291.727            -0  -1.78631e-14       4.95095   0.000266612
       23.3606       82.3716       -290.45            -0  -1.77849e-14       4.89811   0.000263767
       23.4805       82.4025      -289.183            -0  -1.77074e-14       4.84616    0.00026097
       23.6004       82.4328      -287.926            -0  -1.76304e-14       4.79507   0.000258218
       23.7203       82.4627      -286.679            -0   -1.7554e-14        4.7448   0.000255511
       23.8402       82.4922      -285.441            -0  -1.74782e-14       4.69534   0.000252848
       23.9601       82.5213      -284.213            -0   -1.7403e-14       4.64666   0.000250226
         24.08       82.5501      -282.995            -0  -1.73284e-14       4.59874   0.000247646
