# radius [kpc]; vcirc [km/s] ; f_x [km/s/s] ; f_y [km/s/s] ; f_z [km/s/s];
           0.1           nan      -398.858       530.732       21.1066
        0.2199       4.87921       108.261       278.295       242.797
        0.3398       14.7844       643.259       114.688       323.518
        0.4597       21.4633       1002.12       33.2458       327.107
        0.5796        26.773        1236.7       11.5166       300.839
        0.6995       31.2549       1396.52       23.4316       269.982
        0.8194       35.1274        1505.9       48.2393       243.851
        0.9393        38.457       1574.51       72.7148        223.35
        1.0592       41.2655       1607.67       90.1484         206.3
        1.1791       43.5868       1611.24        98.397       190.297
         1.299       45.4856       1592.72       98.0309       173.831
        1.4189       47.0471       1559.96        90.911       156.425
        1.5388       48.3664       1520.22       79.2705       138.362
        1.6587       49.5327       1479.16       65.1955       120.322
        1.7786       50.6195       1440.65       50.3817       103.078
        1.8985       51.6786       1406.73        36.058       87.2909
        2.0184       52.7395       1378.05       23.0252       73.4208
        2.1383       53.8122       1354.23       11.7214       61.6963
        2.2582        54.892       1334.31       2.31243       52.1419
        2.3781       55.9653       1317.07      -5.22745       44.6241
         2.498       57.0145        1301.3      -11.0454       38.9046
        2.6179       58.0221       1285.98      -15.3553       34.6893
        2.7378       58.9729       1270.29      -18.3976       31.6685
        2.8577        59.856       1253.71      -20.4131       29.5446
        2.9776       60.6648       1235.97      -21.6247       28.0524
        3.0975       61.3969       1216.97      -22.2279       26.9688
        3.2174        62.054       1196.84      -22.3876       26.1156
        3.3373       62.6407       1175.76      -22.2374        25.359
        3.4572       63.1636       1154.01      -21.8817       24.6052
        3.5771       63.6307       1131.88      -21.3994       23.7944
         3.697       64.0509       1109.69      -20.8473       22.8946
        3.8169        64.433       1087.69      -20.2647       21.8949
        3.9368       64.7854       1066.13       -19.677       20.8003
        4.0567       65.1159        1045.2      -19.0989       19.6259
        4.1766        65.431       1025.05      -18.5377        18.393
        4.2965       65.7366       1005.77      -17.9954       17.1263
        4.4164       66.0369       987.427      -17.4706       15.8507
        4.5363       66.3354       970.038      -16.9599       14.5897
        4.6562       66.6344       953.598      -16.4595       13.3646
        4.7761       66.9352       938.072      -15.9653       12.1931
         4.896       67.2384       923.408      -15.4735       11.0899
        5.0159       67.5439       909.544      -14.9815       10.0656
        5.1358       67.8511       896.408      -14.4871        9.1278
        5.2557       68.1589       883.924      -13.9895       8.28072
        5.3756       68.4662       872.019      -13.4884       7.52597
        5.4955       68.7716        860.62      -12.9846       6.86278
        5.6154       69.0736       849.658      -12.4792        6.2885
        5.7353       69.3709       839.071      -11.9742       5.79894
        5.8552       69.6621       828.803      -11.4716       5.38878
        5.9751       69.9461       818.806      -10.9739       5.05195
         6.095       70.2218       809.041      -10.4835       4.78188
        6.2149       70.4885       799.471      -10.0028       4.57169
        6.3348       70.7456       790.071      -9.53423        4.4146
        6.4547       70.9926       780.818      -9.07993       4.30384
        6.5746       71.2293         771.7      -8.64181       4.23299
        6.6945       71.4557       762.703      -8.22151       4.19597
        6.8144       71.6719       753.824      -7.82037       4.18716
        6.9343       71.8781       745.059      -7.43941       4.20142
        7.0542       72.0748       736.408      -7.07933       4.23407
        7.1741       72.2624       727.875      -6.74052       4.28099
         7.294       72.4415       719.464      -6.42307       4.33854
        7.4139       72.6128        711.18      -6.12681       4.40357
        7.5338        72.777       703.031      -5.85133       4.47338
        7.6537       72.9348       695.022      -5.59597       4.54569
        7.7736       73.0871       687.161      -5.35992       4.61865
        7.8935       73.2344       679.455      -5.14218        4.6907
        8.0134       73.3776       671.908      -4.94163       4.76064
        8.1333       73.5174       664.528      -4.75707       4.82753
        8.2532       73.6544       657.317      -4.58721       4.89068
        8.3731       73.7894       650.281      -4.43075       4.94959
         8.493       73.9228       643.422      -4.28633       5.00395
        8.6129       74.0554       636.742      -4.15262       5.05358
        8.7328       74.1875       630.242      -4.02831       5.09843
        8.8527       74.3195       623.921      -3.91214       5.13853
        8.9726       74.4519       617.779      -3.80288       5.17398
        9.0925        74.585       611.814       -3.6994       5.20494
        9.2124        74.719       606.023      -3.60064       5.23161
        9.3323       74.8541       600.403       -3.5056       5.25418
        9.4522       74.9906        594.95       -3.4134        5.2729
        9.5721       75.1284       589.659      -3.32324       5.28797
         9.692       75.2677       584.527      -3.23443       5.29962
        9.8119       75.4086       579.546      -3.14637       5.30805
        9.9318       75.5508       574.713      -3.05854       5.31343
       10.0517       75.6946        570.02      -2.97053       5.31594
       10.1716       75.8396       565.462      -2.88201       5.31572
       10.2915        75.986       561.033      -2.79274       5.31288
       10.4114       76.1334       556.726      -2.70255       5.30751
       10.5313       76.2819       552.536      -2.61135       5.29968
       10.6512       76.4312       548.457      -2.51912       5.28946
       10.7711       76.5812       544.483      -2.42589       5.27685
        10.891       76.7318       540.608      -2.33174       5.26188
       11.0109       76.8827       536.827      -2.23682       5.24453
       11.1308       77.0339       533.135      -2.14127       5.22478
       11.2507       77.1851       529.526      -2.04532       5.20261
       11.3706       77.3362       525.996       -1.9492       5.17797
       11.4905       77.4871       522.541      -1.85314       5.15081
       11.6104       77.6377       519.156      -1.75742       5.12108
       11.7303       77.7877       515.838       -1.6623       5.08873
       11.8502       77.9372       512.583      -1.56806       5.05369
       11.9701       78.0859       509.387      -1.47497       5.01591
         12.09       78.2339       506.249      -1.38329       4.97534
       12.2099        78.381       503.164      -1.29329       4.93195
       12.3298       78.5272       500.131      -1.20519       4.88567
       12.4497       78.6724       497.148      -1.11924        4.8365
       12.5696       78.8165       494.212      -1.03562        4.7844
       12.6895       78.9596       491.321      -0.95453       4.72935
       12.8094       79.1016       488.474     -0.876131       4.67137
       12.9293       79.2425        485.67     -0.800558       4.61045
       13.0492       79.3823       482.908     -0.727928        4.5466
       13.1691       79.5211       480.185     -0.658325       4.47988
        13.289       79.6588       477.501     -0.591819       4.41031
       13.4089       79.7954       474.856     -0.528442       4.33795
       13.5288       79.9309       472.248      -0.46821       4.26286
       13.6487       80.0655       469.677     -0.411116       4.18511
       13.7686       80.1991       467.142     -0.357125       4.10481
       13.8885       80.3318       464.643     -0.306183       4.02204
       14.0084       80.4635       462.178     -0.258216        3.9369
       14.1283       80.5944       459.748     -0.213133       3.84952
       14.2482       80.7245       457.352     -0.170824       3.76001
       14.3681       80.8537       454.989     -0.131165       3.66851
        14.488       80.9822       452.659    -0.0940174       3.57515
       14.6079         81.11       450.361    -0.0592319       3.48008
       14.7278        81.237       448.095    -0.0266489       3.38346
       14.8477       81.3634       445.861    0.00389916       3.28544
       14.9676       81.4891       443.657     0.0325851       3.18617
       15.0875       81.6142       441.483     0.0595834       3.08582
       15.2074       81.7387        439.34     0.0850774       2.98455
       15.3273       81.8626       437.225      0.109246       2.88253
       15.4472       81.9859       435.139      0.132269       2.77993
       15.5671       82.1085       433.081      0.154324       2.67692
        15.687       82.2307        431.05      0.175583       2.57366
       15.8069       82.3522       429.046      0.196216       2.47033
       15.9268       82.4731       427.067      0.216385       2.36708
       16.0467       82.5934       425.114      0.236244       2.26408
       16.1666       82.7131       423.185      0.255939       2.16149
       16.2865       82.8322        421.28      0.275606       2.05946
       16.4064       82.9507       419.398      0.295376       1.95815
       16.5263       83.0685       417.539      0.315362       1.85771
       16.6462       83.1856       415.701       0.33567       1.75827
       16.7661        83.302       413.884      0.356395       1.65999
        16.886       83.4177       412.088      0.377618       1.56298
       17.0059       83.5327       410.311       0.39941       1.46738
       17.1258       83.6469       408.553      0.421829        1.3733
       17.2457       83.7603       406.814      0.444922       1.28087
       17.3656       83.8729       405.092      0.468723       1.19018
       17.4855       83.9847       403.387      0.493255       1.10135
       17.6054       84.0956       401.699      0.518531       1.01445
       17.7253       84.2057       400.027      0.544553       0.92958
       17.8452       84.3149        398.37      0.571309      0.846818
       17.9651       84.4232       396.729      0.598777      0.766233
        18.085       84.5305       395.102      0.626936      0.687895
       18.2049        84.637       393.489       0.65574      0.611856
       18.3248       84.7425       391.889      0.685147      0.538168
       18.4447       84.8471       390.304      0.715103      0.466876
       18.5646       84.9508       388.731      0.745546      0.398014
       18.6845       85.0535       387.171       0.77641      0.331612
       18.8044       85.1553       385.624      0.807624      0.267693
       18.9243       85.2561       384.088      0.839107       0.20627
       19.0442        85.356       382.565      0.870783      0.147361
       19.1641        85.455       381.054      0.902564     0.0909597
        19.284       85.5532       379.555      0.934363     0.0370653
       19.4039       85.6504       378.068      0.966092    -0.0143266
       19.5238       85.7467       376.592      0.997661    -0.0632317
       19.6437       85.8422       375.127       1.02898     -0.109671
       19.7636       85.9369       373.675       1.05995      -0.15367
       19.8835       86.0308       372.233       1.09049     -0.195256
       20.0034       86.1239       370.803       1.12051     -0.234463
       20.1233       86.2163       369.385       1.14992      -0.27133
       20.2432       86.3079       367.978       1.17863     -0.305897
       20.3631       86.3989       366.583       1.20657     -0.338212
        20.483       86.4892         365.2       1.23365     -0.368323
       20.6029       86.5789       363.828       1.25979     -0.396282
       20.7228        86.668       362.468       1.28493     -0.422146
       20.8427       86.7566       361.119         1.309     -0.445971
       20.9626       86.8446       359.783       1.33193     -0.467819
       21.0825       86.9322       358.459       1.35367     -0.487745
       21.2024       87.0193       357.146       1.37416     -0.505818
       21.3223        87.106       355.846       1.39336     -0.522104
       21.4422       87.1923       354.558       1.41121     -0.536667
       21.5621       87.2783       353.282       1.42769      -0.54957
        21.682        87.364       352.019       1.44276      -0.56089
       21.8019       87.4494       350.767       1.45638     -0.570685
       21.9218       87.5345       349.528       1.46856     -0.579029
       22.0417       87.6194       348.301       1.47925     -0.585988
       22.1616       87.7041       347.087       1.48846      -0.59163
       22.2815       87.7886       345.885       1.49618     -0.596022
       22.4014        87.873       344.696       1.50241     -0.599233
       22.5213       87.9572       343.518       1.50715     -0.601324
       22.6412       88.0413       342.353       1.51041     -0.602366
       22.7611       88.1254         341.2       1.51221     -0.602417
        22.881       88.2093       340.059       1.51256     -0.601541
       23.0009       88.2932        338.93       1.51149     -0.599802
       23.1208        88.377       337.813       1.50903     -0.597256
       23.2407       88.4608       336.707        1.5052      -0.59396
       23.3606       88.5445       335.613       1.50004     -0.589971
       23.4805       88.6282       334.531       1.49358     -0.585345
       23.6004       88.7118        333.46       1.48587     -0.580132
       23.7203       88.7954         332.4       1.47696     -0.574382
       23.8402        88.879       331.351       1.46688     -0.568143
       23.9601       88.9625       330.313       1.45569     -0.561461
         24.08        89.046       329.285       1.44343     -0.554379
       24.1999       89.1294       328.268       1.43015      -0.54694
       24.3198       89.2127        327.26       1.41592     -0.539183
       24.4397       89.2959       326.263       1.40079     -0.531145
       24.5596        89.379       325.274       1.38481      -0.52286
       24.6795        89.462       324.296       1.36803     -0.514362
       24.7994       89.5449       323.326       1.35052     -0.505682
       24.9193       89.6277       322.365       1.33233     -0.496848
       25.0392       89.7102       321.413       1.31353     -0.487888
       25.1591       89.7926       320.469       1.29416     -0.478825
        25.279       89.8747       319.533       1.27429     -0.469681
       25.3989       89.9567       318.604       1.25396     -0.460478
       25.5188       90.0383       317.683       1.23324     -0.451234
       25.6387       90.1197        316.77       1.21218     -0.441966
       25.7586       90.2008       315.863       1.19084      -0.43269
       25.8785       90.2815       314.963       1.16926     -0.423418
       25.9984       90.3619       314.069        1.1475     -0.414163
       26.1183        90.442       313.181        1.1256     -0.404935
       26.2382       90.5216       312.299       1.10361     -0.395744
       26.3581       90.6008       311.423       1.08159     -0.386596
        26.478       90.6796       310.552       1.05957     -0.377498
       26.5979       90.7579       309.686       1.03759     -0.368456
       26.7178       90.8357       308.825        1.0157     -0.359472
       26.8377        90.913       307.969      0.993939     -0.350552
       26.9576       90.9897       307.117      0.972332     -0.341695
       27.0775       91.0659       306.269       0.95092     -0.332905
       27.1974       91.1416       305.426      0.929733     -0.324181
       27.3173       91.2166       304.586        0.9088     -0.315522
       27.4372       91.2911        303.75       0.88815     -0.306929
       27.5571       91.3649       302.918      0.867807       -0.2984
        27.677       91.4381       302.089      0.847795     -0.289934
       27.7969       91.5106       301.264      0.828134     -0.281527
       27.9168       91.5825       300.441      0.808842     -0.273178
       28.0367       91.6537       299.622      0.789937     -0.264884
       28.1566       91.7242       298.805      0.771433     -0.256643
       28.2765        91.794       297.991      0.753342      -0.24845
       28.3964       91.8632        297.18      0.735675     -0.240304
       28.5163       91.9316       296.372      0.718441     -0.232202
       28.6362       91.9993       295.566      0.701645      -0.22414
       28.7561       92.0664       294.762      0.685294     -0.216116
        28.876       92.1327       293.961       0.66939     -0.208127
       28.9959       92.1983       293.163      0.653935     -0.200171
       29.1158       92.2631       292.367      0.638928     -0.192246
       29.2357       92.3273       291.573      0.624368      -0.18435
       29.3556       92.3908       290.781      0.610253     -0.176481
       29.4755       92.4536       289.992      0.596577     -0.168638
       29.5954       92.5157       289.206      0.583335     -0.160821
       29.7153       92.5771       288.421      0.570521     -0.153029
       29.8352       92.6379       287.639      0.558125     -0.145263
       29.9551        92.698        286.86       0.54614     -0.137521
        30.075       92.7574       286.083      0.534556     -0.129806
       30.1949       92.8162       285.308      0.523363     -0.122118
       30.3148       92.8744       284.536      0.512547      -0.11446
       30.4347        92.932       283.767      0.502098     -0.106833
       30.5546        92.989           283      0.492001    -0.0992405
       30.6745       93.0454       282.236      0.482245    -0.0916853
       30.7944       93.1012       281.474      0.472815    -0.0841708
       30.9143       93.1565       280.716      0.463697    -0.0767006
       31.0342       93.2112        279.96      0.454877    -0.0692796
       31.1541       93.2655       279.207      0.446339    -0.0619125
        31.274       93.3192       278.457      0.438069     -0.054604
       31.3939       93.3725       277.711      0.430052    -0.0473598
       31.5138       93.4253       276.967      0.422273    -0.0401858
       31.6337       93.4777       276.227      0.414716     -0.033088
       31.7536       93.5296        275.49      0.407367    -0.0260728
       31.8735       93.5812       274.756       0.40021     -0.019147
       31.9934       93.6324       274.026      0.393232    -0.0123176
       32.1133       93.6832       273.299      0.386416   -0.00559151
       32.2332       93.7337       272.576       0.37975    0.00102367
       32.3531       93.7838       271.857      0.373218    0.00752053
        32.473       93.8337       271.141      0.366808     0.0138915
       32.5929       93.8832       270.429      0.360507     0.0201286
       32.7128       93.9325       269.721        0.3543     0.0262242
       32.8327       93.9816       269.016      0.348176     0.0321704
       32.9526       94.0304       268.316      0.342122     0.0379593
       33.0725        94.079        267.62      0.336128     0.0435833
       33.1924       94.1274       266.928      0.330182     0.0490337
       33.3123       94.1756       266.239      0.324274     0.0543043
       33.4322       94.2237       265.555      0.318393     0.0593855
       33.5521       94.2716       264.875       0.31253     0.0642714
