t [kpc/km/s]; x [kpc]; y[kpc]; z [kpc]; vx [kpc]; vy [kpc]; vz [kpc]
0.0 -17.48472 50.9823 31.3227 -130.11742857142858 113.61601428571427 61.17697142857143
0.09545454545454546 -28.86051 59.2701 35.553000000000004 -107.87841428571429 62.256542857142854 28.92685714285714
0.19090909090909092 -38.0304 63.1671 37.0443 -84.0048 20.49834285714286 3.05195
0.2863636363636364 -44.8431 63.3333 36.237 -58.387214285714286 -16.480514285714285 -19.5965
0.38181818181818183 -49.0905 60.0867 33.352199999999996 -30.013342857142856 -51.384457142857144 -40.68617142857143
0.4772727272727273 -50.4216 53.516999999999996 28.48074 3.161792857142857 -86.47697142857143 -61.41362857142857
0.5727272727272728 -48.218700000000005 43.503 21.60735 44.91535714285714 -123.94752857142858 -82.79307142857144
0.6681818181818182 -41.3058 29.69172 12.62421 104.21447142857141 -166.57142857142858 -105.74614285714286
0.7636363636363637 -26.68992 11.27763 1.299558 213.07314285714284 -215.49157142857143 -127.76154285714286
0.8590909090909091 3.78804 -7.83474 -8.942070000000001 400.81800000000004 -115.89458571428571 -44.46011428571428
0.9545454545454546 36.4377 -11.41713 -8.961269999999999 281.44442857142855 7.987099999999999 22.599342857142855
1.05 58.628699999999995 -8.82291 -6.13749 193.512 41.902457142857145 34.433614285714285
1.1454545454545455 73.8129 -3.97818 -2.698644 127.0716857142857 57.89378571428571 36.735757142857146
1.240909090909091 83.21520000000001 2.002602 0.760305 71.115 66.55754285714285 35.29884285714286
1.3363636363636364 87.54 8.59848 3.97068 19.96562857142857 71.07351428571428 31.639142857142854
1.4318181818181819 87.0663 15.471480000000001 6.73815 -29.930685714285712 72.42557142857143 26.000385714285713
1.5272727272727273 81.7707 22.32273 8.85921 -81.5906142857143 70.51455714285714 17.971485714285713
1.6227272727272728 71.3148 28.789170000000002 10.05597 -138.81764285714286 63.994228571428565 6.331804285714285
1.7181818181818183 54.9015 34.2684 9.85665 -207.823 48.64687142857142 -12.161144285714286
1.8136363636363637 30.564 37.3212 7.12059 -303.072 6.687277142857143 -50.28618571428571
1.9090909090909092 -2.650179 31.4469 -2.318736 -348.139 -171.028 -169.54771428571428
2.004545454545455 -24.59565 12.48432 -19.09545 -140.03597142857143 -183.05414285714284 -157.0305
2.1 -33.527699999999996 -2.464524 -32.0664 -58.11111428571429 -134.255 -118.97851428571428
2.1954545454545453 -36.5919 -13.18206 -41.8971 -9.38102 -91.24311428571428 -87.91938571428571
2.290909090909091 -35.7486 -20.01498 -48.9777 25.486528571428572 -52.3809 -60.89882857142857
2.3863636363636367 -31.9482 -23.232419999999998 -53.5797 53.27017142857143 -15.11469142857143 -35.67205714285714
2.481818181818182 -25.71015 -22.88412 -55.7943 76.88261428571428 22.667699999999996 -10.646334285714286
2.5772727272727276 -17.35836 -18.819149999999997 -55.570800000000006 97.71032857142858 63.172371428571424 15.685607142857142
2.672727272727273 -7.12704 -10.63866 -52.6965 116.27707142857142 109.59032857142857 45.30381428571429
2.768181818181818 4.745430000000001 2.4785459999999997 -46.710300000000004 131.7239 168.05642857142857 81.708
2.8636363636363638 17.84592 22.52409 -36.5079 136.42577142857144 254.90928571428572 133.74774285714287
2.9590909090909094 28.321080000000002 53.6103 -20.07387 37.18141428571429 407.4478571428571 210.70185714285714
3.0545454545454547 20.435760000000002 88.8603 -3.9038700000000004 -134.4361857142857 297.11 117.02255714285715
3.15 7.684410000000001 112.16550000000001 4.07766 -127.3961857142857 200.42000000000002 56.5158
3.2454545454545456 -3.4010700000000003 128.058 7.563599999999999 -106.49461428571428 139.33621428571428 19.39645714285714
3.340909090909091 -12.44379 139.0266 8.00544 -82.66782857142857 92.06544285714286 -9.170904285714284
3.4363636363636365 -19.12731 145.8474 5.94504 -57.0427 51.613257142857144 -33.51244285714286
3.531818181818182 -23.25555 148.97639999999998 1.672533 -28.93172857142857 14.231092857142857 -55.78822857142857
3.6272727272727274 -24.52074 148.5816 -4.68264 3.297045714285714 -22.60012857142857 -77.33612857142857
3.7227272727272727 -22.40511 144.606 -13.102620000000002 42.59168571428572 -61.209028571428576 -99.23665714285714
3.8181818181818183 -15.96414 136.749 -23.674049999999998 95.56454285714285 -104.47014285714286 -122.59405714285712
3.9136363636363636 -2.990046 124.2543 -36.7161 182.63142857142856 -156.1893142857143 -148.13982857142855
4.00909090909091 22.600140000000003 107.535 -51.5232 385.9082857142857 -163.49614285714284 -144.95014285714285
4.1045454545454545 60.522600000000004 102.7989 -60.4032 341.82657142857147 26.33777142857143 -65.06767142857143
4.2 87.07050000000001 107.6172 -66.0132 227.02585714285712 67.39448571428571 -55.296528571428574
4.295454545454546 104.5155 114.8685 -71.0082 141.94635714285712 82.4820857142857 -49.65761428571428
4.390909090909091 114.61019999999999 123.1059 -75.5316 71.00248571428571 89.1561 -45.30617142857143
4.486363636363636 118.2246 131.7261 -79.6956 5.013077142857143 90.61061428571429 -42.139271428571426
4.581818181818182 115.54769999999999 140.2368 -83.61779999999999 -61.5747 86.72352857142856 -40.30007142857143
4.677272727272728 106.29990000000001 148.04340000000002 -87.4578 -133.5414142857143 75.1707 -40.661185714285715
4.772727272727273 89.6829 154.10219999999998 -91.5231 -217.42285714285714 47.767657142857146 -45.656600000000005
