t [kpc/km/s]; x [kpc]; y[kpc]; z [kpc]; vx [kpc]; vy [kpc]; vz [kpc]
0.0 31.9377 15.25968 30.9378 -211.24085714285715 265.97371428571427 128.11589999999998
0.09545454545454546 9.41079 38.535900000000005 39.9111 -251.3342857142857 217.78900000000002 61.38864285714285
0.19090909090909092 -14.68938 56.7735 43.3239 -249.29771428571428 165.9742857142857 13.92237
0.2863636363636364 -37.7238 70.6056 43.158899999999996 -232.18485714285714 125.80417142857142 -15.016304285714286
0.38181818181818183 -58.9152 81.11070000000001 40.7976 -211.673 95.67422857142857 -33.13042857142857
0.4772727272727273 -78.1371 89.088 37.0287 -191.1862857142857 72.40671428571429 -45.05065714285714
0.5727272727272728 -95.4444 95.0826 32.315999999999995 -171.6125714285714 53.842485714285715 -53.19505714285714
0.6681818181818182 -110.9325 99.4716 26.95041 -153.06892857142856 38.5869 -58.89777142857143
0.7636363636363637 -124.69680000000001 102.5259 21.125220000000002 -135.4738 25.75162857142857 -62.91921428571428
0.8590909090909091 -136.8213 104.4459 14.977139999999999 -118.68732857142858 14.744211428571429 -65.7217
0.9545454545454546 -147.3765 105.38550000000001 8.60748 -102.56651428571429 5.150577142857142 -67.59845714285714
1.05 -156.4188 105.4647 2.09544 -86.97102857142858 -3.32167 -68.72925714285714
1.1454545454545455 -163.9929 104.7804 -4.49406 -71.77704285714285 -10.88215857142857 -69.24578571428572
1.240909090909091 -170.1312 103.4109 -11.10768 -56.87722857142857 -17.69255714285714 -69.24248571428572
1.3363636363636364 -174.85709999999997 101.4228 -17.69754 -42.163785714285716 -23.86685714285714 -68.75267142857143
1.4318181818181819 -178.18349999999998 98.87159999999999 -24.21942 -27.53692857142857 -29.505457142857143 -67.82694285714285
1.5272727272727273 -180.1137 95.8047 -30.6333 -12.901695714285713 -34.68284285714285 -66.4961
1.6227272727272728 -180.6429 92.26350000000001 -36.9 1.8462557142857141 -39.44458571428571 -64.72101428571428
1.7181818181818183 -179.7543 88.28670000000001 -42.973200000000006 16.817742857142857 -43.81802857142857 -62.44291428571428
1.8136363636363637 -177.4218 83.90969999999999 -48.8052 32.11528571428571 -47.83255714285715 -59.665099999999995
1.9090909090909092 -173.6091 79.1658 -54.347100000000005 47.8522 -51.501842857142854 -56.352999999999994
2.004545454545455 -168.2682 74.0889 -59.542500000000004 64.16394285714286 -54.813157142857136 -52.388600000000004
2.1 -161.33669999999998 68.7135 -64.3245 81.20215714285715 -57.7522 -47.668814285714284
2.1954545454545453 -152.7372 63.076499999999996 -68.6148 99.14944285714286 -60.28047142857143 -42.05881428571429
2.290909090909091 -142.37130000000002 57.222 -72.3186 118.25377142857143 -62.28357142857142 -35.334985714285715
2.3863636363636367 -130.1154 51.2085 -75.31530000000001 138.80318571428572 -63.5767 -27.186342857142854
2.481818181818182 -115.81469999999999 45.117 -77.44829999999999 161.17200000000003 -63.845414285714284 -17.131557142857144
2.5772727272727276 -99.27239999999999 39.069300000000005 -78.5025 185.86385714285714 -62.543642857142856 -4.435498571428572
2.672727272727273 -80.2392 33.2568 -78.1746 213.45971428571426 -58.69757142857142 12.075972857142856
2.768181818181818 -58.4124 28.00293 -76.0143 244.44985714285716 -50.39665714285714 34.38081428571429
2.8636363636363638 -33.4728 23.89944 -71.3229 278.43985714285714 -33.65512857142857 65.80797142857142
2.9590909090909094 -5.2969800000000005 22.10769 -63.0015 310.63685714285714 -0.011071672857142856 111.29957142857143
3.0545454545454547 25.13043 24.85008 -49.614 319.76214285714286 62.874428571428574 170.06314285714285
3.15 53.8683 34.6293 -31.1166 273.031 139.86845714285712 210.3592857142857
3.2454545454545456 76.4496 50.4477 -10.89681 200.69657142857145 185.00428571428571 207.6972857142857
3.340909090909091 92.673 68.9979 7.94289 142.3066857142857 200.35085714285717 185.73814285714283
3.4363636363636365 104.1333 88.28190000000001 24.47235 100.04782857142857 202.3292857142857 160.589
3.531818181818182 112.119 107.451 38.6358 68.72045714285714 198.71185714285713 136.43834285714286
3.6272727272727274 117.47579999999999 126.1374 50.573100000000004 44.46655714285715 192.51100000000002 113.95308571428572
3.7227272727272727 120.75659999999999 144.1572 60.4407 24.91672857142857 184.85185714285714 93.0391
3.8181818181818183 122.33579999999999 161.3961 68.3796 8.62378 176.20114285714286 73.52352857142857
3.9136363636363636 122.4777 177.7695 74.5173 -5.307625714285715 166.73642857142858 55.27735714285714
4.00909090909091 121.38180000000001 193.2063 78.96900000000001 -17.371042857142857 156.60401428571427 38.17722857142857
4.1045454545454545 119.2107 207.6513 81.8385 -27.87918571428571 145.98162857142856 22.110314285714285
4.2 116.10180000000001 221.0649 83.22 -37.05334285714286 135.02562857142857 6.980725714285714
4.295454545454546 112.1739 233.4219 83.1978 -45.0637 123.85151428571429 -7.310945714285714
4.390909090909091 107.5311 244.7043 81.8478 -52.05215714285714 112.51585714285714 -20.863385714285712
4.486363636363636 102.26520000000001 254.8971 79.23540000000001 -58.14442857142857 101.01865714285715 -33.77251428571429
4.581818181818182 96.45599999999999 263.9835 75.41789999999999 -63.44234285714286 89.33131428571429 -46.1252
4.677272727272728 90.1764 271.9443 70.4448 -68.01802857142857 77.42161428571428 -57.99294285714285
4.772727272727273 83.49210000000001 278.7555 64.3599 -71.92145714285714 65.24461428571428 -69.43718571428572
