# radius [kpc]; vcirc [km/s] ; f_x [km/s/s] ; f_y [km/s/s] ; f_z [km/s/s];
           0.1       9.30305      -865.467             0             0
         0.399       32.5609      -2657.17             0             0
         0.698       51.0896      -3739.46             0             0
         0.997       65.0751      -4247.51             0             0
         1.296       76.8091      -4552.19             0             0
         1.595       87.7253       -4824.9             0             0
         1.894        97.781      -5048.11             0             0
         2.193       106.488      -5170.85             0             0
         2.492       114.028      -5217.68             0             0
         2.791       120.746      -5223.82             0             0
          3.09       126.673      -5192.87             0             0
         3.389        131.69      -5117.24             0             0
         3.688       135.768      -4998.06             0             0
         3.987       139.094      -4852.55             0             0
         4.286       141.942      -4700.76             0             0
         4.585       144.403      -4547.89             0             0
         4.884        146.39      -4387.78             0             0
         5.183       147.947      -4223.11             0             0
         5.482       149.061      -4053.12             0             0
         5.781       149.784      -3880.86             0             0
          6.08       150.176      -3709.37             0             0
         6.379       150.433       -3547.6             0             0
         6.678       150.609       -3396.7             0             0
         6.977       150.684      -3254.36             0             0
         7.276        150.57      -3115.89             0             0
         7.575       150.228      -2979.34             0             0
         7.874       149.797      -2849.78             0             0
         8.173       149.345      -2728.96             0             0
         8.472       148.704      -2610.12             0             0
         8.771       147.693      -2486.98             0             0
          9.07       146.588      -2369.13             0             0
         9.369       145.477      -2258.91             0             0
         9.668        144.32      -2154.34             0             0
         9.967       143.016      -2052.14             0             0
        10.266       141.683      -1955.39             0             0
        10.565       140.363       -1864.8             0             0
        10.864       139.054      -1779.83             0             0
        11.163       137.742      -1699.61             0             0
        11.462       136.429      -1623.89             0             0
        11.761       135.104      -1552.01             0             0
         12.06       133.767      -1483.71             0             0
        12.359       132.469      -1419.86             0             0
        12.658       131.164      -1359.15             0             0
        12.957       129.849      -1301.28             0             0
        13.256       128.567      -1246.94             0             0
        13.555       127.263      -1194.82             0             0
        13.854       125.987      -1145.71             0             0
        14.153       124.696      -1098.64             0             0
        14.452       123.432       -1054.2             0             0
        14.751       122.151      -1011.52             0             0
         15.05       120.883      -970.943             0             0
        15.349       119.602      -931.953             0             0
        15.648       118.377      -895.519             0             0
        15.947        117.12      -860.162             0             0
        16.246       115.954      -827.604             0             0
        16.545       114.766      -796.082             0             0
        16.844       113.621      -766.433             0             0
        17.143       112.515      -738.467             0             0
        17.442       111.382      -711.269             0             0
        17.741       110.337      -686.216             0             0
         18.04       109.275      -661.924             0             0
        18.339       108.208      -638.475             0             0
        18.638       107.218       -616.79             0             0
        18.937       106.208      -595.663             0             0
        19.236       105.192      -575.238             0             0
        19.535       104.255      -556.389             0             0
        19.834         103.3      -538.008             0             0
        20.133       102.326      -520.076             0             0
        20.432       101.444      -503.663             0             0
        20.731       100.562      -487.804             0             0
         21.03       99.6638      -472.319             0             0
        21.329       98.7911      -457.578             0             0
        21.628       97.9911      -443.974             0             0
        21.927       97.1777       -430.68             0             0
        22.226       96.3508      -417.686             0             0
        22.525        95.565      -405.446             0             0
        22.824       94.8337      -394.034             0             0
        23.123        94.091      -382.871             0             0
        23.422       93.3369      -371.949             0             0
        23.721       92.5974      -361.464             0             0
         24.02       91.9434      -351.939             0             0
        24.319         91.28      -342.614             0             0
        24.618       90.6072      -333.482             0             0
        24.917       89.9249      -324.537             0             0
        25.216       89.2926      -316.195             0             0
        25.515          88.7      -308.356             0             0
        25.814       88.0996      -300.672             0             0
        26.113       87.4914      -293.139             0             0
        26.412       86.8753      -285.753             0             0
        26.711       86.2951      -278.793             0             0
         27.01        85.772      -272.374             0             0
        27.309       85.2426      -266.077             0             0
        27.608       84.7069      -259.898             0             0
        27.907       84.1648      -253.833             0             0
        28.206       83.6164       -247.88             0             0
        28.505       83.1264      -242.414             0             0
        28.804       82.6604      -237.215             0             0
        29.103       82.1892      -232.109             0             0
        29.402        81.713      -227.094             0             0
        29.701       81.2317      -222.167             0             0
