# radius [kpc]; vcirc [km/s] ; f_x [km/s/s] ; f_y [km/s/s] ; f_z [km/s/s];
           0.1       8.52935      -727.498             0             0
         0.399        29.551      -2188.63             0             0
         0.698       46.0483      -3037.89             0             0
         0.997       58.4824      -3430.48             0             0
         1.296       69.0303      -3676.84             0             0
         1.595       78.8018      -3893.25             0             0
         1.894       87.6437      -4055.66             0             0
         2.193       95.1069      -4124.63             0             0
         2.492       101.652      -4146.51             0             0
         2.791       107.422      -4134.57             0             0
          3.09       112.349       -4084.9             0             0
         3.389       116.357      -3994.97             0             0
         3.688       119.555      -3875.63             0             0
         3.987        122.24      -3747.82             0             0
         4.286       124.546      -3619.15             0             0
         4.585       126.394       -3484.3             0             0
         4.884       127.823      -3345.34             0             0
         5.183       128.819      -3201.71             0             0
         5.482       129.435      -3056.06             0             0
         5.781       129.755      -2912.36             0             0
          6.08       129.974      -2778.49             0             0
         6.379       130.105      -2653.62             0             0
         6.678       130.115      -2535.19             0             0
         6.977       129.914      -2419.04             0             0
         7.276       129.531      -2305.98             0             0
         7.575       129.134       -2201.4             0             0
         7.874       128.616      -2100.85             0             0
         8.173       127.787      -1997.98             0             0
         8.472       126.787      -1897.42             0             0
         8.771       125.766      -1803.33             0             0
          9.07       124.705       -1714.6             0             0
         9.369       123.514      -1628.32             0             0
         9.668       122.288      -1546.79             0             0
         9.967       121.078      -1470.85             0             0
        10.266       119.879      -1399.86             0             0
        10.565       118.673         -1333             0             0
        10.864       117.454      -1269.82             0             0
        11.163       116.241      -1210.42             0             0
        11.462        115.03      -1154.42             0             0
        11.761        113.82      -1101.51             0             0
         12.06        112.63      -1051.87             0             0
        12.359       111.436      -1004.78             0             0
        12.658       110.241      -960.114             0             0
        12.957       109.068      -918.097             0             0
        13.256       107.875      -877.861             0             0
        13.555       106.718      -840.181             0             0
        13.854        105.54      -804.005             0             0
        14.153       104.375      -769.744             0             0
        14.452       103.203      -736.986             0             0
        14.751       102.075       -706.34             0             0
         15.05       100.932      -676.891             0             0
        15.349       99.8605      -649.692             0             0
        15.648       98.7608      -623.319             0             0
        15.947       97.7437      -599.099             0             0
        16.246       96.7166      -575.778             0             0
        16.545       95.7128      -553.698             0             0
        16.844        94.747      -532.949             0             0
        17.143       93.7587      -512.786             0             0
        17.442       92.8357      -494.121             0             0
        17.741       91.9119      -476.173             0             0
         18.04       90.9679      -458.712             0             0
        18.339       90.1076      -442.739             0             0
        18.638       89.2311      -427.202             0             0
        18.937       88.3366      -412.069             0             0
        19.236       87.5301      -398.291             0             0
        19.535       86.7177      -384.948             0             0
        19.834       85.8898       -371.94             0             0
        20.133       85.1149      -359.835             0             0
        20.432       84.3759      -348.438             0             0
        20.731       83.6237      -337.317             0             0
         21.03       82.8582      -326.462             0             0
        21.329       82.1852      -316.677             0             0
        21.628       81.5072      -307.168             0             0
        21.927        80.818      -297.877             0             0
        22.226       80.1176      -288.798             0             0
        22.525       79.5144       -280.69             0             0
        22.824       78.9063      -272.792             0             0
        23.123       78.2889      -265.068             0             0
        23.422       77.6623      -257.512             0             0
        23.721       77.0839      -250.492             0             0
         24.02       76.5387      -243.887             0             0
        24.319       75.9859      -237.422             0             0
        24.618       75.4255      -231.091             0             0
        24.917       74.8573      -224.892             0             0
        25.216       74.3551      -219.253             0             0
        25.515       73.8721      -213.878             0             0
        25.814        73.383       -208.61             0             0
        26.113       72.8877      -203.447             0             0
        26.412       72.3861      -198.385             0             0
        26.711         71.91      -193.593             0             0
         27.01       71.4831      -189.183             0             0
        27.309       71.0511      -184.857             0             0
        27.608       70.6143      -180.613             0             0
        27.907       70.1724      -176.449             0             0
        28.206       69.7254      -172.362             0             0
        28.505       69.3019      -168.488             0             0
        28.804       68.9241      -164.926             0             0
        29.103       68.5423      -161.428             0             0
        29.402       68.1566      -157.993             0             0
        29.701       67.7668      -154.619             0             0
