# radius [kpc]; vcirc [km/s] ; f_x [km/s/s] ; f_y [km/s/s] ; f_z [km/s/s];
           0.1       6.34153       -402.15            -0  -2.46246e-14      -283.986
        0.2199       13.1777      -789.691            -0  -4.83546e-14      -296.805
        0.3398       20.5307      -1240.46            -0  -7.59561e-14      -302.126
        0.4597       27.7326      -1673.04            -0  -1.02444e-13      -292.656
        0.5796        34.516      -2055.48            -0  -1.25862e-13      -274.323
        0.6995       40.7744      -2376.77            -0  -1.45535e-13      -251.962
        0.8194       46.4825      -2636.84            -0   -1.6146e-13      -228.625
        0.9393       51.6568      -2840.86            -0  -1.73953e-13      -206.072
        1.0592       56.3358      -2996.34            -0  -1.83473e-13       -185.23
        1.1791       60.5688      -3111.34            -0  -1.90515e-13      -166.507
         1.299       64.4085      -3193.58            -0   -1.9555e-13      -149.997
        1.4189       67.9068      -3249.93            -0  -1.99001e-13      -135.619
        1.5388       71.1124      -3286.31            -0  -2.01228e-13      -123.193
        1.6587       74.0698      -3307.61            -0  -2.02533e-13      -112.499
        1.7786        76.818      -3317.78            -0  -2.03155e-13      -103.306
        1.8985       79.3906      -3319.92            -0  -2.03286e-13      -95.3923
        2.0184        81.816      -3316.42            -0  -2.03072e-13      -88.5545
        2.1383       84.1176      -3309.06            -0  -2.02622e-13      -82.6133
        2.2582       86.3142      -3299.15            -0  -2.02015e-13      -77.4141
        2.3781       88.4207      -3287.59            -0  -2.01307e-13      -72.8265
         2.498       90.4488      -3275.01            -0  -2.00537e-13      -68.7423
        2.6179       92.4072      -3261.81            -0  -1.99728e-13      -65.0729
        2.7378       94.3026      -3248.22            -0  -1.98896e-13       -61.747
        2.8577       96.1398      -3234.37            -0  -1.98048e-13      -58.7072
        2.9776       97.9223       -3220.3            -0  -1.97187e-13      -55.9083
        3.0975       99.6526      -3206.02            -0  -1.96312e-13      -53.3148
        3.2174       101.333      -3191.48            -0  -1.95422e-13      -50.8989
        3.3373       102.964      -3176.67            -0  -1.94515e-13      -48.6391
        3.4572       104.547      -3161.54            -0  -1.93589e-13      -46.5183
        3.5771       106.084      -3146.07            -0  -1.92641e-13      -44.5235
         3.697       107.575      -3130.22            -0  -1.91671e-13      -42.6442
        3.8169       109.022         -3114            -0  -1.90678e-13      -40.8719
        3.9368       110.426      -3097.41            -0  -1.89662e-13      -39.1997
        4.0567       111.788      -3080.46            -0  -1.88624e-13      -37.6216
        4.1766       113.109      -3063.19            -0  -1.87566e-13      -36.1325
        4.2965       114.392      -3045.63            -0  -1.86491e-13      -34.7275
        4.4164       115.638      -3027.81            -0    -1.854e-13      -33.4023
        4.5363       116.847      -3009.79            -0  -1.84297e-13      -32.1526
        4.6562       118.023      -2991.61            -0  -1.83183e-13      -30.9744
        4.7761       119.167      -2973.32            -0  -1.82064e-13      -29.8636
         4.896       120.281      -2954.97            -0   -1.8094e-13      -28.8164
        5.0159       121.366      -2936.61            -0  -1.79815e-13      -27.8289
        5.1358       122.424      -2918.27            -0  -1.78693e-13      -26.8974
        5.2557       123.457      -2900.01            -0  -1.77574e-13      -26.0183
        5.3756       124.465      -2881.84            -0  -1.76462e-13      -25.1879
        5.4955       125.452      -2863.81            -0  -1.75358e-13       -24.403
        5.6154       126.416      -2845.95            -0  -1.74264e-13      -23.6601
        5.7353       127.361      -2828.26            -0  -1.73181e-13      -22.9564
        5.8552       128.288      -2810.78            -0  -1.72111e-13      -22.2887
        5.9751       129.196      -2793.52            -0  -1.71054e-13      -21.6544
         6.095       130.087      -2776.48            -0   -1.7001e-13      -21.0509
        6.2149       130.962      -2759.67            -0  -1.68981e-13      -20.4758
        6.3348       131.822       -2743.1            -0  -1.67966e-13      -19.9269
        6.4547       132.667      -2726.76            -0  -1.66966e-13      -19.4022
        6.5746       133.497      -2710.66            -0   -1.6598e-13      -18.8998
        6.6945       134.314      -2694.78            -0  -1.65008e-13      -18.4179
        6.8144       135.117      -2679.13            -0   -1.6405e-13      -17.9552
        6.9343       135.908       -2663.7            -0  -1.63105e-13      -17.5102
        7.0542       136.685      -2648.47            -0  -1.62172e-13      -17.0817
        7.1741        137.45      -2633.45            -0  -1.61252e-13      -16.6685
         7.294       138.203      -2618.61            -0  -1.60344e-13      -16.2697
        7.4139       138.944      -2603.96            -0  -1.59446e-13      -15.8843
        7.5338       139.673      -2589.47            -0  -1.58559e-13      -15.5116
        7.6537        140.39      -2575.15            -0  -1.57683e-13      -15.1509
        7.7736       141.096      -2560.98            -0  -1.56815e-13      -14.8015
        7.8935        141.79      -2546.96            -0  -1.55956e-13      -14.4629
        8.0134       142.473      -2533.08            -0  -1.55106e-13      -14.1345
        8.1333       143.145      -2519.32            -0  -1.54264e-13       -13.816
        8.2532       143.805      -2505.69            -0  -1.53429e-13      -13.5068
        8.3731       144.455      -2492.17            -0  -1.52602e-13      -13.2068
         8.493       145.094      -2478.77            -0  -1.51781e-13      -12.9154
        8.6129       145.722      -2465.47            -0  -1.50966e-13      -12.6324
        8.7328       146.339      -2452.27            -0  -1.50158e-13      -12.3576
        8.8527       146.946      -2439.17            -0  -1.49356e-13      -12.0907
        8.9726       147.543      -2426.17            -0   -1.4856e-13      -11.8314
        9.0925        148.13      -2413.26            -0  -1.47769e-13      -11.5794
        9.2124       148.707      -2400.43            -0  -1.46984e-13      -11.3346
        9.3323       149.274       -2387.7            -0  -1.46204e-13      -11.0968
        9.4522       149.831      -2375.05            -0   -1.4543e-13      -10.8657
        9.5721       150.379      -2362.49            -0  -1.44661e-13      -10.6412
         9.692       150.918      -2350.01            -0  -1.43896e-13       -10.423
        9.8119       151.448      -2337.61            -0  -1.43137e-13       -10.211
        9.9318       151.969       -2325.3            -0  -1.42384e-13      -10.0049
       10.0517       152.481      -2313.07            -0  -1.41635e-13      -9.80466
       10.1716       152.984      -2300.93            -0  -1.40891e-13      -9.60998
       10.2915       153.479      -2288.87            -0  -1.40153e-13      -9.42071
       10.4114       153.966      -2276.89            -0  -1.39419e-13      -9.23668
       10.5313       154.445      -2264.99            -0  -1.38691e-13      -9.05772
       10.6512       154.916      -2253.18            -0  -1.37967e-13      -8.88364
       10.7711        155.38      -2241.45            -0  -1.37249e-13      -8.71429
        10.891       155.836       -2229.8            -0  -1.36536e-13       -8.5495
       11.0109       156.284      -2218.24            -0  -1.35828e-13      -8.38911
       11.1308       156.726      -2206.76            -0  -1.35125e-13      -8.23295
       11.2507        157.16      -2195.36            -0  -1.34427e-13      -8.08088
       11.3706       157.588      -2184.05            -0  -1.33734e-13      -7.93274
       11.4905       158.009      -2172.82            -0  -1.33047e-13       -7.7884
       11.6104       158.423      -2161.66            -0  -1.32364e-13       -7.6477
       11.7303        158.83       -2150.6            -0  -1.31686e-13      -7.51052
       11.8502       159.232      -2139.61            -0  -1.31013e-13      -7.37673
       11.9701       159.627       -2128.7            -0  -1.30345e-13      -7.24619
         12.09       160.016      -2117.87            -0  -1.29682e-13      -7.11879
       12.2099       160.399      -2107.12            -0  -1.29024e-13      -6.99442
       12.3298       160.776      -2096.45            -0   -1.2837e-13      -6.87297
       12.4497       161.147      -2085.85            -0  -1.27722e-13      -6.75432
       12.5696       161.512      -2075.33            -0  -1.27077e-13      -6.63838
       12.6895       161.871      -2064.89            -0  -1.26438e-13      -6.52505
       12.8094       162.226      -2054.52            -0  -1.25803e-13      -6.41426
       12.9293       162.574      -2044.22            -0  -1.25172e-13       -6.3059
       13.0492       162.917      -2033.99            -0  -1.24546e-13       -6.1999
       13.1691       163.255      -2023.84            -0  -1.23924e-13      -6.09618
        13.289       163.587      -2013.75            -0  -1.23307e-13      -5.99467
       13.4089       163.914      -2003.74            -0  -1.22694e-13      -5.89531
       13.5288       164.236      -1993.79            -0  -1.22084e-13      -5.79803
       13.6487       164.553      -1983.91            -0  -1.21479e-13      -5.70277
       13.7686       164.865      -1974.09            -0  -1.20878e-13      -5.60948
       13.8885       165.172      -1964.34            -0  -1.20281e-13      -5.51809
       14.0084       165.474      -1954.66            -0  -1.19688e-13      -5.42857
       14.1283       165.771      -1945.03            -0  -1.19099e-13      -5.34086
       14.2482       166.063      -1935.47            -0  -1.18513e-13      -5.25492
       14.3681       166.351      -1925.97            -0  -1.17932e-13      -5.17072
        14.488       166.634      -1916.53            -0  -1.17354e-13       -5.0882
       14.6079       166.912      -1907.15            -0  -1.16779e-13      -5.00733
       14.7278       167.185      -1897.83            -0  -1.16209e-13      -4.92808
       14.8477       167.454      -1888.57            -0  -1.15642e-13      -4.85042
       14.9676       167.719      -1879.37            -0  -1.15078e-13      -4.77431
       15.0875       167.979      -1870.23            -0  -1.14518e-13      -4.69972
       15.2074       168.235      -1861.14            -0  -1.13962e-13      -4.62663
       15.3273       168.487      -1852.11            -0  -1.13409e-13        -4.555
       15.4472       168.734      -1843.13            -0  -1.12859e-13      -4.48481
       15.5671       168.978      -1834.22            -0  -1.12313e-13      -4.41604
        15.687       169.217      -1825.36            -0  -1.11771e-13      -4.34866
       15.8069       169.452      -1816.55            -0  -1.11232e-13      -4.28264
       15.9268       169.683       -1807.8            -0  -1.10696e-13      -4.21797
       16.0467       169.911      -1799.11            -0  -1.10163e-13      -4.15462
       16.1666       170.135      -1790.47            -0  -1.09634e-13      -4.09256
       16.2865       170.354      -1781.88            -0  -1.09109e-13      -4.03179
       16.4064       170.571      -1773.35            -0  -1.08587e-13      -3.97226
       16.5263       170.783      -1764.88            -0  -1.08068e-13      -3.91397
       16.6462       170.993      -1756.46            -0  -1.07552e-13      -3.85689
       16.7661       171.198       -1748.1            -0   -1.0704e-13      -3.80099
        16.886       171.401       -1739.8            -0  -1.06532e-13      -3.74627
       17.0059         171.6      -1731.55            -0  -1.06027e-13       -3.6927
       17.1258       171.796      -1723.35            -0  -1.05525e-13      -3.64025
       17.2457       171.988      -1715.21            -0  -1.05026e-13      -3.58891
       17.3656       172.178      -1707.13            -0  -1.04531e-13      -3.53865
       17.4855       172.365       -1699.1            -0   -1.0404e-13      -3.48946
       17.6054       172.548      -1691.13            -0  -1.03552e-13      -3.44131
       17.7253       172.729      -1683.21            -0  -1.03067e-13      -3.39419
       17.8452       172.907      -1675.35            -0  -1.02586e-13      -3.34807
       17.9651       173.083      -1667.55            -0  -1.02108e-13      -3.30293
        18.085       173.256       -1659.8            -0  -1.01634e-13      -3.25875
       18.2049       173.426      -1652.11            -0  -1.01163e-13      -3.21551
       18.3248       173.594      -1644.48            -0  -1.00695e-13      -3.17319
       18.4447       173.759       -1636.9            -0  -1.00231e-13      -3.13177
       18.5646       173.922      -1629.38            -0   -9.9771e-14      -3.09123
       18.6845       174.083      -1621.92            -0  -9.93141e-14      -3.05154
       18.8044       174.241      -1614.52            -0  -9.88606e-14       -3.0127
       18.9243       174.398      -1607.17            -0  -9.84106e-14      -2.97467
       19.0442       174.552      -1599.87            -0  -9.79641e-14      -2.93743
       19.1641       174.704      -1592.64            -0   -9.7521e-14      -2.90097
        19.284       174.854      -1585.46            -0  -9.70814e-14      -2.86527
       19.4039       175.003      -1578.34            -0  -9.66453e-14       -2.8303
       19.5238       175.149      -1571.27            -0  -9.62127e-14      -2.79606
       19.6437       175.294      -1564.26            -0  -9.57834e-14       -2.7625
       19.7636       175.437      -1557.31            -0  -9.53577e-14      -2.72963
       19.8835       175.578      -1550.41            -0  -9.49353e-14      -2.69742
       20.0034       175.718      -1543.57            -0  -9.45164e-14      -2.66585
       20.1233       175.855      -1536.78            -0  -9.41009e-14       -2.6349
       20.2432       175.992      -1530.05            -0  -9.36887e-14      -2.60456
       20.3631       176.127      -1523.38            -0  -9.32799e-14       -2.5748
        20.483        176.26      -1516.76            -0  -9.28745e-14      -2.54561
       20.6029       176.392      -1510.19            -0  -9.24724e-14      -2.51698
       20.7228       176.523      -1503.68            -0  -9.20736e-14      -2.48888
       20.8427       176.652      -1497.22            -0  -9.16781e-14       -2.4613
       20.9626        176.78      -1490.81            -0  -9.12858e-14      -2.43422
       21.0825       176.907      -1484.46            -0  -9.08968e-14      -2.40763
       21.2024       177.032      -1478.16            -0   -9.0511e-14      -2.38152
       21.3223       177.157      -1471.91            -0  -9.01284e-14      -2.35586
       21.4422        177.28      -1465.71            -0  -8.97489e-14      -2.33064
       21.5621       177.402      -1459.57            -0  -8.93726e-14      -2.30585
        21.682       177.522      -1453.47            -0  -8.89994e-14      -2.28148
       21.8019       177.642      -1447.42            -0  -8.86292e-14      -2.25751
       21.9218        177.76      -1441.43            -0  -8.82621e-14      -2.23393
       22.0417       177.878      -1435.48            -0  -8.78979e-14      -2.21073
       22.1616       177.994      -1429.58            -0  -8.75367e-14      -2.18789
       22.2815       178.109      -1423.73            -0  -8.71785e-14       -2.1654
       22.4014       178.223      -1417.93            -0  -8.68231e-14      -2.14326
       22.5213       178.337      -1412.17            -0  -8.64706e-14      -2.12144
       22.6412       178.449      -1406.46            -0   -8.6121e-14      -2.09994
       22.7611        178.56       -1400.8            -0  -8.57741e-14      -2.07876
        22.881        178.67      -1395.18            -0    -8.543e-14      -2.05787
       23.0009       178.779       -1389.6            -0  -8.50886e-14      -2.03728
       23.1208       178.888      -1384.07            -0  -8.47498e-14      -2.01696
       23.2407       178.995      -1378.58            -0  -8.44138e-14      -1.99692
       23.3606       179.101      -1373.14            -0  -8.40803e-14      -1.97714
       23.4805       179.207      -1367.73            -0  -8.37494e-14      -1.95762
       23.6004       179.311      -1362.37            -0   -8.3421e-14      -1.93835
       23.7203       179.414      -1357.05            -0  -8.30951e-14      -1.91932
       23.8402       179.517      -1351.76            -0  -8.27716e-14      -1.90053
       23.9601       179.618      -1346.52            -0  -8.24506e-14      -1.88196
         24.08       179.719      -1341.32            -0  -8.21319e-14      -1.86362
       24.1999       179.818      -1336.15            -0  -8.18156e-14      -1.84549
       24.3198       179.917      -1331.02            -0  -8.15015e-14      -1.82757
       24.4397       180.015      -1325.93            -0  -8.11898e-14      -1.80986
       24.5596       180.111      -1320.87            -0  -8.08802e-14      -1.79235
       24.6795       180.207      -1315.85            -0  -8.05729e-14      -1.77503
       24.7994       180.302      -1310.87            -0  -8.02677e-14       -1.7579
       24.9193       180.396      -1305.92            -0  -7.99646e-14      -1.74096
       25.0392       180.489      -1301.01            -0  -7.96636e-14       -1.7242
       25.1591        180.58      -1296.12            -0  -7.93647e-14      -1.70762
        25.279       180.671      -1291.27            -0  -7.90677e-14      -1.69121
       25.3989       180.761      -1286.46            -0  -7.87728e-14      -1.67498
       25.5188        180.85      -1281.67            -0  -7.84798e-14      -1.65891
       25.6387       180.938      -1276.92            -0  -7.81887e-14        -1.643
       25.7586       181.025       -1272.2            -0  -7.78995e-14      -1.62726
       25.8785       181.111       -1267.5            -0  -7.76122e-14      -1.61167
       25.9984       181.196      -1262.84            -0  -7.73267e-14      -1.59624
       26.1183       181.279      -1258.21            -0   -7.7043e-14      -1.58097
       26.2382       181.362       -1253.6            -0   -7.6761e-14      -1.56585
       26.3581       181.444      -1249.03            -0  -7.64808e-14      -1.55087
        26.478       181.525      -1244.48            -0  -7.62023e-14      -1.53605
       26.5979       181.605      -1239.96            -0  -7.59254e-14      -1.52137
       26.7178       181.683      -1235.46            -0  -7.56502e-14      -1.50683
       26.8377       181.761      -1230.99            -0  -7.53767e-14      -1.49244
       26.9576       181.838      -1226.55            -0  -7.51047e-14      -1.47818
       27.0775       181.913      -1222.14            -0  -7.48343e-14      -1.46407
       27.1974       181.988      -1217.75            -0  -7.45655e-14       -1.4501
       27.3173       182.061      -1213.38            -0  -7.42982e-14      -1.43626
       27.4372       182.134      -1209.04            -0  -7.40324e-14      -1.42256
       27.5571       182.205      -1204.72            -0  -7.37681e-14      -1.40899
        27.677       182.275      -1200.43            -0  -7.35052e-14      -1.39555
       27.7969       182.345      -1196.16            -0  -7.32438e-14      -1.38225
       27.9168       182.413      -1191.92            -0  -7.29838e-14      -1.36908
       28.0367        182.48      -1187.69            -0  -7.27252e-14      -1.35605
