# radius [kpc]; vcirc [km/s] ; f_x [km/s/s] ; f_y [km/s/s] ; f_z [km/s/s];
           0.1       6.35945      -404.425            -0  -2.47639e-14
        0.2199       13.2028      -792.696            -0  -4.85386e-14
        0.3398       20.5551      -1243.41            -0  -7.61371e-14
        0.4597       27.7545      -1675.68            -0  -1.02606e-13
        0.5796       34.5349      -2057.73            -0     -1.26e-13
        0.6995       40.7904      -2378.64            -0   -1.4565e-13
        0.8194       46.4959      -2638.35            -0  -1.61552e-13
        0.9393       51.6678      -2842.07            -0  -1.74027e-13
        1.0592       56.3448       -2997.3            -0  -1.83532e-13
        1.1791       60.5762       -3112.1            -0  -1.90561e-13
         1.299       64.4146      -3194.18            -0  -1.95587e-13
        1.4189       67.9118      -3250.41            -0   -1.9903e-13
        1.5388       71.1166       -3286.7            -0  -2.01252e-13
        1.6587       74.0734      -3307.93            -0  -2.02552e-13
        1.7786       76.8211      -3318.05            -0  -2.03172e-13
        1.8985       79.3934      -3320.16            -0  -2.03301e-13
        2.0184       81.8186      -3316.63            -0  -2.03085e-13
        2.1383         84.12      -3309.25            -0  -2.02633e-13
        2.2582       86.3165      -3299.33            -0  -2.02025e-13
        2.3781       88.4229      -3287.76            -0  -2.01317e-13
         2.498       90.4509      -3275.17            -0  -2.00546e-13
        2.6179       92.4092      -3261.95            -0  -1.99737e-13
        2.7378       94.3045      -3248.35            -0  -1.98904e-13
        2.8577       96.1415      -3234.48            -0  -1.98055e-13
        2.9776       97.9237       -3220.4            -0  -1.97192e-13
        3.0975       99.6538      -3206.09            -0  -1.96317e-13
        3.2174       101.333      -3191.54            -0  -1.95426e-13
        3.3373       102.964      -3176.71            -0  -1.94518e-13
        3.4572       104.547      -3161.56            -0   -1.9359e-13
        3.5771       106.084      -3146.07            -0  -1.92641e-13
         3.697       107.575       -3130.2            -0  -1.91669e-13
        3.8169       109.021      -3113.96            -0  -1.90675e-13
        3.9368       110.425      -3097.35            -0  -1.89658e-13
        4.0567       111.786      -3080.39            -0  -1.88619e-13
        4.1766       113.108       -3063.1            -0  -1.87561e-13
        4.2965        114.39      -3045.52            -0  -1.86484e-13
        4.4164       115.635      -3027.69            -0  -1.85392e-13
        4.5363       116.845      -3009.65            -0  -1.84288e-13
        4.6562       118.021      -2991.46            -0  -1.83174e-13
        4.7761       119.164      -2973.16            -0  -1.82054e-13
         4.896       120.278       -2954.8            -0   -1.8093e-13
        5.0159       121.362      -2936.43            -0  -1.79805e-13
        5.1358        122.42      -2918.09            -0  -1.78681e-13
        5.2557       123.453      -2899.82            -0  -1.77563e-13
        5.3756       124.461      -2881.65            -0   -1.7645e-13
        5.4955       125.447      -2863.62            -0  -1.75346e-13
        5.6154       126.412      -2845.75            -0  -1.74252e-13
        5.7353       127.357      -2828.06            -0  -1.73169e-13
        5.8552       128.283      -2810.58            -0  -1.72099e-13
        5.9751       129.191      -2793.32            -0  -1.71041e-13
         6.095       130.082      -2776.28            -0  -1.69998e-13
        6.2149       130.957      -2759.47            -0  -1.68969e-13
        6.3348       131.817       -2742.9            -0  -1.67954e-13
        6.4547       132.662      -2726.57            -0  -1.66954e-13
        6.5746       133.492      -2710.47            -0  -1.65968e-13
        6.6945       134.309      -2694.59            -0  -1.64996e-13
        6.8144       135.113      -2678.95            -0  -1.64038e-13
        6.9343       135.903      -2663.51            -0  -1.63093e-13
        7.0542       136.681      -2648.29            -0  -1.62161e-13
        7.1741       137.446      -2633.27            -0  -1.61241e-13
         7.294       138.199      -2618.43            -0  -1.60333e-13
        7.4139       138.939      -2603.78            -0  -1.59435e-13
        7.5338       139.668       -2589.3            -0  -1.58549e-13
        7.6537       140.386      -2574.98            -0  -1.57672e-13
        7.7736       141.091      -2560.81            -0  -1.56805e-13
        7.8935       141.785      -2546.79            -0  -1.55946e-13
        8.0134       142.468      -2532.91            -0  -1.55096e-13
        8.1333        143.14      -2519.16            -0  -1.54254e-13
        8.2532       143.801      -2505.53            -0  -1.53419e-13
        8.3731        144.45      -2492.01            -0  -1.52592e-13
         8.493       145.089      -2478.61            -0  -1.51771e-13
        8.6129       145.717      -2465.31            -0  -1.50957e-13
        8.7328       146.335      -2452.12            -0  -1.50149e-13
        8.8527       146.942      -2439.02            -0  -1.49347e-13
        8.9726       147.539      -2426.02            -0  -1.48551e-13
        9.0925       148.125      -2413.11            -0   -1.4776e-13
        9.2124       148.702      -2400.28            -0  -1.46975e-13
        9.3323       149.269      -2387.55            -0  -1.46195e-13
        9.4522       149.827       -2374.9            -0  -1.45421e-13
        9.5721       150.375      -2362.34            -0  -1.44652e-13
         9.692       150.914      -2349.87            -0  -1.43888e-13
        9.8119       151.443      -2337.47            -0  -1.43129e-13
        9.9318       151.964      -2325.16            -0  -1.42375e-13
       10.0517       152.476      -2312.94            -0  -1.41626e-13
       10.1716        152.98      -2300.79            -0  -1.40883e-13
       10.2915       153.475      -2288.73            -0  -1.40144e-13
       10.4114       153.962      -2276.76            -0  -1.39411e-13
       10.5313       154.441      -2264.86            -0  -1.38683e-13
       10.6512       154.912      -2253.05            -0   -1.3796e-13
       10.7711       155.375      -2241.32            -0  -1.37242e-13
        10.891       155.831      -2229.68            -0  -1.36529e-13
       11.0109        156.28      -2218.12            -0  -1.35821e-13
       11.1308       156.722      -2206.64            -0  -1.35118e-13
       11.2507       157.156      -2195.25            -0   -1.3442e-13
       11.3706       157.584      -2183.93            -0  -1.33727e-13
       11.4905       158.005       -2172.7            -0   -1.3304e-13
       11.6104       158.419      -2161.56            -0  -1.32357e-13
       11.7303       158.827      -2150.49            -0  -1.31679e-13
       11.8502       159.228       -2139.5            -0  -1.31007e-13
       11.9701       159.623       -2128.6            -0  -1.30339e-13
         12.09       160.012      -2117.77            -0  -1.29676e-13
       12.2099       160.395      -2107.02            -0  -1.29018e-13
       12.3298       160.772      -2096.35            -0  -1.28365e-13
       12.4497       161.143      -2085.76            -0  -1.27716e-13
       12.5696       161.508      -2075.24            -0  -1.27072e-13
       12.6895       161.868       -2064.8            -0  -1.26433e-13
       12.8094       162.222      -2054.43            -0  -1.25798e-13
       12.9293       162.571      -2044.14            -0  -1.25167e-13
       13.0492       162.914      -2033.91            -0  -1.24541e-13
       13.1691       163.252      -2023.76            -0   -1.2392e-13
        13.289       163.584      -2013.68            -0  -1.23302e-13
       13.4089       163.911      -2003.67            -0  -1.22689e-13
       13.5288       164.233      -1993.72            -0   -1.2208e-13
       13.6487        164.55      -1983.84            -0  -1.21475e-13
       13.7686       164.862      -1974.03            -0  -1.20874e-13
       13.8885       165.169      -1964.28            -0  -1.20277e-13
       14.0084       165.471       -1954.6            -0  -1.19684e-13
       14.1283       165.768      -1944.97            -0  -1.19095e-13
       14.2482       166.061      -1935.41            -0   -1.1851e-13
       14.3681       166.348      -1925.92            -0  -1.17928e-13
        14.488       166.631      -1916.48            -0  -1.17351e-13
       14.6079       166.909       -1907.1            -0  -1.16776e-13
       14.7278       167.183      -1897.78            -0  -1.16206e-13
       14.8477       167.452      -1888.53            -0  -1.15639e-13
       14.9676       167.717      -1879.32            -0  -1.15075e-13
       15.0875       167.977      -1870.18            -0  -1.14516e-13
       15.2074       168.233       -1861.1            -0  -1.13959e-13
       15.3273       168.485      -1852.07            -0  -1.13406e-13
       15.4472       168.732      -1843.09            -0  -1.12857e-13
       15.5671       168.976      -1834.18            -0  -1.12311e-13
        15.687       169.215      -1825.32            -0  -1.11768e-13
       15.8069        169.45      -1816.51            -0  -1.11229e-13
       15.9268       169.682      -1807.76            -0  -1.10694e-13
       16.0467       169.909      -1799.07            -0  -1.10161e-13
       16.1666       170.133      -1790.43            -0  -1.09632e-13
       16.2865       170.353      -1781.85            -0  -1.09107e-13
       16.4064       170.569      -1773.32            -0  -1.08585e-13
       16.5263       170.782      -1764.85            -0  -1.08066e-13
       16.6462       170.991      -1756.43            -0  -1.07551e-13
       16.7661       171.197      -1748.07            -0  -1.07039e-13
        16.886       171.399      -1739.77            -0   -1.0653e-13
       17.0059       171.598      -1731.52            -0  -1.06025e-13
       17.1258       171.794      -1723.32            -0  -1.05523e-13
       17.2457       171.987      -1715.18            -0  -1.05025e-13
       17.3656       172.177       -1707.1            -0   -1.0453e-13
       17.4855       172.363      -1699.07            -0  -1.04038e-13
       17.6054       172.547       -1691.1            -0   -1.0355e-13
       17.7253       172.728      -1683.19            -0  -1.03065e-13
       17.8452       172.906      -1675.33            -0  -1.02584e-13
       17.9651       173.082      -1667.52            -0  -1.02106e-13
        18.085       173.254      -1659.78            -0  -1.01632e-13
       18.2049       173.425      -1652.09            -0  -1.01161e-13
       18.3248       173.592      -1644.46            -0  -1.00694e-13
       18.4447       173.758      -1636.88            -0   -1.0023e-13
       18.5646       173.921      -1629.36            -0  -9.97696e-14
       18.6845       174.081       -1621.9            -0  -9.93126e-14
       18.8044        174.24      -1614.49            -0  -9.88591e-14
       18.9243       174.396      -1607.14            -0  -9.84091e-14
       19.0442       174.551      -1599.85            -0  -9.79626e-14
       19.1641       174.703      -1592.62            -0  -9.75196e-14
        19.284       174.853      -1585.44            -0    -9.708e-14
       19.4039       175.001      -1578.31            -0  -9.66439e-14
       19.5238       175.148      -1571.25            -0  -9.62112e-14
       19.6437       175.292      -1564.24            -0   -9.5782e-14
       19.7636       175.435      -1557.29            -0  -9.53562e-14
       19.8835       175.577      -1550.39            -0  -9.49339e-14
       20.0034       175.716      -1543.55            -0   -9.4515e-14
       20.1233       175.854      -1536.76            -0  -9.40994e-14
       20.2432       175.991      -1530.03            -0  -9.36873e-14
       20.3631       176.126      -1523.35            -0  -9.32785e-14
        20.483       176.259      -1516.73            -0  -9.28731e-14
       20.6029       176.391      -1510.17            -0   -9.2471e-14
       20.7228       176.522      -1503.65            -0  -9.20722e-14
       20.8427       176.651      -1497.19            -0  -9.16767e-14
       20.9626       176.779      -1490.79            -0  -9.12845e-14
       21.0825       176.906      -1484.44            -0  -9.08954e-14
       21.2024       177.031      -1478.13            -0  -9.05097e-14
       21.3223       177.155      -1471.89            -0  -9.01271e-14
       21.4422       177.278      -1465.69            -0  -8.97476e-14
       21.5621         177.4      -1459.54            -0  -8.93713e-14
        21.682       177.521      -1453.45            -0   -8.8998e-14
       21.8019        177.64       -1447.4            -0  -8.86279e-14
       21.9218       177.759      -1441.41            -0  -8.82608e-14
       22.0417       177.876      -1435.46            -0  -8.78966e-14
       22.1616       177.993      -1429.56            -0  -8.75355e-14
       22.2815       178.108      -1423.71            -0  -8.71772e-14
       22.4014       178.222      -1417.91            -0  -8.68219e-14
       22.5213       178.335      -1412.15            -0  -8.64694e-14
       22.6412       178.448      -1406.44            -0  -8.61198e-14
       22.7611       178.559      -1400.78            -0  -8.57729e-14
        22.881       178.669      -1395.16            -0  -8.54288e-14
       23.0009       178.778      -1389.58            -0  -8.50874e-14
       23.1208       178.886      -1384.05            -0  -8.47487e-14
       23.2407       178.994      -1378.56            -0  -8.44126e-14
       23.3606         179.1      -1373.12            -0  -8.40791e-14
       23.4805       179.205      -1367.71            -0  -8.37482e-14
       23.6004        179.31      -1362.35            -0  -8.34199e-14
       23.7203       179.413      -1357.03            -0   -8.3094e-14
       23.8402       179.516      -1351.75            -0  -8.27705e-14
       23.9601       179.617       -1346.5            -0  -8.24495e-14
         24.08       179.718       -1341.3            -0  -8.21309e-14
       24.1999       179.817      -1336.13            -0  -8.18146e-14
       24.3198       179.916         -1331            -0  -8.15005e-14
       24.4397       180.014      -1325.91            -0  -8.11888e-14
       24.5596        180.11      -1320.86            -0  -8.08793e-14
       24.6795       180.206      -1315.84            -0   -8.0572e-14
       24.7994       180.301      -1310.86            -0  -8.02668e-14
       24.9193       180.395      -1305.91            -0  -7.99637e-14
       25.0392       180.488      -1300.99            -0  -7.96628e-14
       25.1591       180.579      -1296.11            -0  -7.93638e-14
        25.279        180.67      -1291.26            -0  -7.90669e-14
       25.3989        180.76      -1286.44            -0   -7.8772e-14
       25.5188       180.849      -1281.66            -0   -7.8479e-14
       25.6387       180.937      -1276.91            -0   -7.8188e-14
       25.7586       181.024      -1272.18            -0  -7.78988e-14
       25.8785        181.11      -1267.49            -0  -7.76115e-14
       25.9984       181.195      -1262.83            -0   -7.7326e-14
       26.1183       181.279       -1258.2            -0  -7.70423e-14
       26.2382       181.362      -1253.59            -0  -7.67604e-14
       26.3581       181.443      -1249.02            -0  -7.64802e-14
        26.478       181.524      -1244.47            -0  -7.62017e-14
       26.5979       181.604      -1239.95            -0  -7.59248e-14
       26.7178       181.683      -1235.45            -0  -7.56497e-14
       26.8377        181.76      -1230.99            -0  -7.53761e-14
       26.9576       181.837      -1226.54            -0  -7.51042e-14
       27.0775       181.913      -1222.13            -0  -7.48338e-14
       27.1974       181.987      -1217.74            -0   -7.4565e-14
       27.3173       182.061      -1213.37            -0  -7.42977e-14
       27.4372       182.133      -1209.03            -0  -7.40319e-14
       27.5571       182.205      -1204.72            -0  -7.37676e-14
        27.677       182.275      -1200.42            -0  -7.35048e-14
       27.7969       182.344      -1196.15            -0  -7.32434e-14
       27.9168       182.412      -1191.91            -0  -7.29834e-14
       28.0367        182.48      -1187.69            -0  -7.27248e-14
       28.1566       182.546      -1183.49            -0  -7.24676e-14
       28.2765       182.611      -1179.31            -0  -7.22118e-14
       28.3964       182.675      -1175.15            -0  -7.19573e-14
       28.5163       182.738      -1171.02            -0  -7.17041e-14
       28.6362         182.8       -1166.9            -0  -7.14523e-14
       28.7561        182.86      -1162.81            -0  -7.12017e-14
        28.876        182.92      -1158.74            -0  -7.09525e-14
       28.9959       182.979      -1154.69            -0  -7.07045e-14
       29.1158       183.037      -1150.66            -0  -7.04577e-14
       29.2357       183.093      -1146.65            -0  -7.02122e-14
       29.3556       183.149      -1142.66            -0  -6.99679e-14
       29.4755       183.204      -1138.69            -0  -6.97249e-14
       29.5954       183.257      -1134.74            -0   -6.9483e-14
       29.7153        183.31      -1130.81            -0  -6.92423e-14
       29.8352       183.361       -1126.9            -0  -6.90028e-14
       29.9551       183.412      -1123.01            -0  -6.87645e-14
        30.075       183.461      -1119.14            -0  -6.85274e-14
       30.1949        183.51      -1115.28            -0  -6.82913e-14
       30.3148       183.557      -1111.45            -0  -6.80565e-14
       30.4347       183.604      -1107.63            -0  -6.78227e-14
       30.5546       183.649      -1103.83            -0  -6.75901e-14
       30.6745       183.694      -1100.05            -0  -6.73586e-14
       30.7944       183.738      -1096.29            -0  -6.71282e-14
       30.9143        183.78      -1092.54            -0  -6.68989e-14
       31.0342       183.822      -1088.81            -0  -6.66707e-14
       31.1541       183.863      -1085.11            -0  -6.64436e-14
        31.274       183.903      -1081.41            -0  -6.62175e-14
       31.3939       183.941      -1077.74            -0  -6.59926e-14
       31.5138       183.979      -1074.08            -0  -6.57687e-14
       31.6337       184.017      -1070.44            -0  -6.55458e-14
       31.7536       184.053      -1066.82            -0   -6.5324e-14
       31.8735       184.088      -1063.22            -0  -6.51033e-14
       31.9934       184.123      -1059.63            -0  -6.48836e-14
       32.1133       184.156      -1056.06            -0  -6.46649e-14
       32.2332       184.189       -1052.5            -0  -6.44473e-14
       32.3531       184.221      -1048.97            -0  -6.42308e-14
        32.473       184.252      -1045.45            -0  -6.40152e-14
       32.5929       184.282      -1041.94            -0  -6.38007e-14
       32.7128       184.312      -1038.46            -0  -6.35872e-14
       32.8327        184.34      -1034.99            -0  -6.33747e-14
       32.9526       184.368      -1031.53            -0  -6.31632e-14
       33.0725       184.395       -1028.1            -0  -6.29527e-14
       33.1924       184.422      -1024.67            -0  -6.27432e-14
       33.3123       184.447      -1021.27            -0  -6.25348e-14
       33.4322       184.472      -1017.88            -0  -6.23273e-14
       33.5521       184.496      -1014.51            -0  -6.21208e-14
